sample,time,code,chan,trialIdx,trialRawTmin.sample,trialRawTmin.time,trialRawT0.sample,trialRawT0.time,trialRawTmax.sample,trialRawTmax.time
308,0.0,15,-1,0,22105,21.5869140625,22413,21.8876953125,35725,34.8876953125
1330,0.998046875,1,-1,0,22105,21.5869140625,22413,21.8876953125,35725,34.8876953125
1959,1.6123046875,350,1,0,22105,21.5869140625,22413,21.8876953125,35725,34.8876953125
2038,1.689453125,351,1,0,22105,21.5869140625,22413,21.8876953125,35725,34.8876953125
2062,1.712890625,350,1,0,22105,21.5869140625,22413,21.8876953125,35725,34.8876953125
2124,1.7734375,351,1,0,22105,21.5869140625,22413,21.8876953125,35725,34.8876953125
2841,2.4736328125,350,1,0,22105,21.5869140625,22413,21.8876953125,35725,34.8876953125
2875,2.5068359375,351,1,0,22105,21.5869140625,22413,21.8876953125,35725,34.8876953125
8500,8.0,115,-1,0,22105,21.5869140625,22413,21.8876953125,35725,34.8876953125
9396,8.875,350,1,0,22105,21.5869140625,22413,21.8876953125,35725,34.8876953125
9410,8.888671875,351,1,0,22105,21.5869140625,22413,21.8876953125,35725,34.8876953125
9493,8.9697265625,350,1,0,22105,21.5869140625,22413,21.8876953125,35725,34.8876953125
9637,9.1103515625,103,-1,0,22105,21.5869140625,22413,21.8876953125,35725,34.8876953125
9665,9.1376953125,351,1,0,22105,21.5869140625,22413,21.8876953125,35725,34.8876953125
308,0.0,12,-1,1,39783,38.8505859375,40091,39.1513671875,53403,52.1513671875
1332,1.0,1,-1,1,39783,38.8505859375,40091,39.1513671875,53403,52.1513671875
8503,8.0029296875,112,-1,1,39783,38.8505859375,40091,39.1513671875,53403,52.1513671875
9295,8.7763671875,350,0,1,39783,38.8505859375,40091,39.1513671875,53403,52.1513671875
9379,8.8583984375,351,0,1,39783,38.8505859375,40091,39.1513671875,53403,52.1513671875
9392,8.87109375,350,0,1,39783,38.8505859375,40091,39.1513671875,53403,52.1513671875
9539,9.0146484375,101,-1,1,39783,38.8505859375,40091,39.1513671875,53403,52.1513671875
9558,9.033203125,351,0,1,39783,38.8505859375,40091,39.1513671875,53403,52.1513671875
308,0.0,12,-1,2,57341,55.9970703125,57649,56.2978515625,70961,69.2978515625
1331,0.9990234375,1,-1,2,57341,55.9970703125,57649,56.2978515625,70961,69.2978515625
8502,8.001953125,112,-1,2,57341,55.9970703125,57649,56.2978515625,70961,69.2978515625
9372,8.8515625,350,0,2,57341,55.9970703125,57649,56.2978515625,70961,69.2978515625
9531,9.0068359375,101,-1,2,57341,55.9970703125,57649,56.2978515625,70961,69.2978515625
9553,9.0283203125,351,0,2,57341,55.9970703125,57649,56.2978515625,70961,69.2978515625
308,0.0,12,-1,3,74923,73.1669921875,75231,73.4677734375,88543,86.4677734375
1332,1.0,1,-1,3,74923,73.1669921875,75231,73.4677734375,88543,86.4677734375
5512,5.08203125,350,1,3,74923,73.1669921875,75231,73.4677734375,88543,86.4677734375
5536,5.10546875,351,1,3,74923,73.1669921875,75231,73.4677734375,88543,86.4677734375
8502,8.001953125,112,-1,3,74923,73.1669921875,75231,73.4677734375,88543,86.4677734375
9318,8.798828125,350,0,3,74923,73.1669921875,75231,73.4677734375,88543,86.4677734375
9445,8.9228515625,101,-1,3,74923,73.1669921875,75231,73.4677734375,88543,86.4677734375
9473,8.9501953125,351,0,3,74923,73.1669921875,75231,73.4677734375,88543,86.4677734375
308,0.0,15,-1,4,92401,90.2353515625,92709,90.5361328125,106021,103.5361328125
1329,0.9970703125,1,-1,4,92401,90.2353515625,92709,90.5361328125,106021,103.5361328125
8500,8.0,115,-1,4,92401,90.2353515625,92709,90.5361328125,106021,103.5361328125
8951,8.4404296875,350,1,4,92401,90.2353515625,92709,90.5361328125,106021,103.5361328125
8999,8.4873046875,351,1,4,92401,90.2353515625,92709,90.5361328125,106021,103.5361328125
9046,8.533203125,350,1,4,92401,90.2353515625,92709,90.5361328125,106021,103.5361328125
9317,8.7978515625,103,-1,4,92401,90.2353515625,92709,90.5361328125,106021,103.5361328125
9356,8.8359375,351,1,4,92401,90.2353515625,92709,90.5361328125,106021,103.5361328125
308,0.0,15,-1,5,109756,107.18359375,110064,107.484375,123376,120.484375
1331,0.9990234375,1,-1,5,109756,107.18359375,110064,107.484375,123376,120.484375
4722,4.310546875,350,0,5,109756,107.18359375,110064,107.484375,123376,120.484375
4739,4.3271484375,351,0,5,109756,107.18359375,110064,107.484375,123376,120.484375
8501,8.0009765625,115,-1,5,109756,107.18359375,110064,107.484375,123376,120.484375
9112,8.59765625,350,1,5,109756,107.18359375,110064,107.484375,123376,120.484375
9333,8.8134765625,103,-1,5,109756,107.18359375,110064,107.484375,123376,120.484375
9390,8.869140625,351,1,5,109756,107.18359375,110064,107.484375,123376,120.484375
308,0.0,15,-1,6,127133,124.1533203125,127441,124.4541015625,140753,137.4541015625
1332,1.0,1,-1,6,127133,124.1533203125,127441,124.4541015625,140753,137.4541015625
8502,8.001953125,115,-1,6,127133,124.1533203125,127441,124.4541015625,140753,137.4541015625
8889,8.3798828125,350,1,6,127133,124.1533203125,127441,124.4541015625,140753,137.4541015625
8929,8.4189453125,351,1,6,127133,124.1533203125,127441,124.4541015625,140753,137.4541015625
9001,8.4892578125,350,1,6,127133,124.1533203125,127441,124.4541015625,140753,137.4541015625
9227,8.7099609375,103,-1,6,127133,124.1533203125,127441,124.4541015625,140753,137.4541015625
9230,8.712890625,351,1,6,127133,124.1533203125,127441,124.4541015625,140753,137.4541015625
308,0.0,15,-1,7,144392,141.0078125,144700,141.30859375,158012,154.30859375
1332,1.0,1,-1,7,144392,141.0078125,144700,141.30859375,158012,154.30859375
1813,1.4697265625,350,1,7,144392,141.0078125,144700,141.30859375,158012,154.30859375
1853,1.5087890625,351,1,7,144392,141.0078125,144700,141.30859375,158012,154.30859375
8502,8.001953125,115,-1,7,144392,141.0078125,144700,141.30859375,158012,154.30859375
8884,8.375,350,1,7,144392,141.0078125,144700,141.30859375,158012,154.30859375
9158,8.642578125,103,-1,7,144392,141.0078125,144700,141.30859375,158012,154.30859375
9174,8.658203125,351,1,7,144392,141.0078125,144700,141.30859375,158012,154.30859375
308,0.0,12,-1,8,161587,157.7998046875,161895,158.1005859375,175207,171.1005859375
1332,1.0,1,-1,8,161587,157.7998046875,161895,158.1005859375,175207,171.1005859375
8173,7.6806640625,350,1,8,161587,157.7998046875,161895,158.1005859375,175207,171.1005859375
8207,7.7138671875,351,1,8,161587,157.7998046875,161895,158.1005859375,175207,171.1005859375
8502,8.001953125,112,-1,8,161587,157.7998046875,161895,158.1005859375,175207,171.1005859375
8957,8.4462890625,350,0,8,161587,157.7998046875,161895,158.1005859375,175207,171.1005859375
9235,8.7177734375,101,-1,8,161587,157.7998046875,161895,158.1005859375,175207,171.1005859375
9250,8.732421875,351,0,8,161587,157.7998046875,161895,158.1005859375,175207,171.1005859375
308,0.0,15,-1,9,178858,174.666015625,179166,174.966796875,192478,187.966796875
343,0.0341796875,350,1,9,178858,174.666015625,179166,174.966796875,192478,187.966796875
368,0.05859375,351,1,9,178858,174.666015625,179166,174.966796875,192478,187.966796875
1332,1.0,1,-1,9,178858,174.666015625,179166,174.966796875,192478,187.966796875
8501,8.0009765625,115,-1,9,178858,174.666015625,179166,174.966796875,192478,187.966796875
8797,8.2900390625,350,1,9,178858,174.666015625,179166,174.966796875,192478,187.966796875
8847,8.3388671875,351,1,9,178858,174.666015625,179166,174.966796875,192478,187.966796875
9229,8.7119140625,350,1,9,178858,174.666015625,179166,174.966796875,192478,187.966796875
9275,8.7568359375,351,1,9,178858,174.666015625,179166,174.966796875,192478,187.966796875
9289,8.7705078125,350,1,9,178858,174.666015625,179166,174.966796875,192478,187.966796875
9470,8.947265625,103,-1,9,178858,174.666015625,179166,174.966796875,192478,187.966796875
9516,8.9921875,351,1,9,178858,174.666015625,179166,174.966796875,192478,187.966796875
308,0.0,12,-1,10,196351,191.7490234375,196659,192.0498046875,209971,205.0498046875
1332,1.0,1,-1,10,196351,191.7490234375,196659,192.0498046875,209971,205.0498046875
8503,8.0029296875,112,-1,10,196351,191.7490234375,196659,192.0498046875,209971,205.0498046875
8945,8.4345703125,350,0,10,196351,191.7490234375,196659,192.0498046875,209971,205.0498046875
9214,8.697265625,101,-1,10,196351,191.7490234375,196659,192.0498046875,209971,205.0498046875
9240,8.72265625,351,0,10,196351,191.7490234375,196659,192.0498046875,209971,205.0498046875
308,0.0,12,-1,11,213597,208.5908203125,213905,208.8916015625,227217,221.8916015625
1331,0.9990234375,1,-1,11,213597,208.5908203125,213905,208.8916015625,227217,221.8916015625
4379,3.9755859375,350,1,11,213597,208.5908203125,213905,208.8916015625,227217,221.8916015625
4394,3.990234375,351,1,11,213597,208.5908203125,213905,208.8916015625,227217,221.8916015625
4449,4.0439453125,350,1,11,213597,208.5908203125,213905,208.8916015625,227217,221.8916015625
4463,4.0576171875,351,1,11,213597,208.5908203125,213905,208.8916015625,227217,221.8916015625
5006,4.587890625,350,1,11,213597,208.5908203125,213905,208.8916015625,227217,221.8916015625
5021,4.6025390625,351,1,11,213597,208.5908203125,213905,208.8916015625,227217,221.8916015625
8501,8.0009765625,112,-1,11,213597,208.5908203125,213905,208.8916015625,227217,221.8916015625
9131,8.6162109375,350,0,11,213597,208.5908203125,213905,208.8916015625,227217,221.8916015625
9147,8.6318359375,351,0,11,213597,208.5908203125,213905,208.8916015625,227217,221.8916015625
9178,8.662109375,350,0,11,213597,208.5908203125,213905,208.8916015625,227217,221.8916015625
9481,8.9580078125,101,-1,11,213597,208.5908203125,213905,208.8916015625,227217,221.8916015625
9519,8.9951171875,351,0,11,213597,208.5908203125,213905,208.8916015625,227217,221.8916015625
308,0.0,12,-1,12,231111,225.6943359375,231419,225.9951171875,244731,238.9951171875
1331,0.9990234375,1,-1,12,231111,225.6943359375,231419,225.9951171875,244731,238.9951171875
8052,7.5625,350,0,12,231111,225.6943359375,231419,225.9951171875,244731,238.9951171875
8084,7.59375,351,0,12,231111,225.6943359375,231419,225.9951171875,244731,238.9951171875
8192,7.69921875,350,0,12,231111,225.6943359375,231419,225.9951171875,244731,238.9951171875
8225,7.7314453125,351,0,12,231111,225.6943359375,231419,225.9951171875,244731,238.9951171875
8501,8.0009765625,112,-1,12,231111,225.6943359375,231419,225.9951171875,244731,238.9951171875
8693,8.1884765625,350,0,12,231111,225.6943359375,231419,225.9951171875,244731,238.9951171875
8725,8.2197265625,351,0,12,231111,225.6943359375,231419,225.9951171875,244731,238.9951171875
8773,8.2666015625,350,0,12,231111,225.6943359375,231419,225.9951171875,244731,238.9951171875
8789,8.2822265625,351,0,12,231111,225.6943359375,231419,225.9951171875,244731,238.9951171875
8822,8.314453125,350,0,12,231111,225.6943359375,231419,225.9951171875,244731,238.9951171875
8868,8.359375,351,0,12,231111,225.6943359375,231419,225.9951171875,244731,238.9951171875
8887,8.3779296875,350,0,12,231111,225.6943359375,231419,225.9951171875,244731,238.9951171875
8973,8.4619140625,351,0,12,231111,225.6943359375,231419,225.9951171875,244731,238.9951171875
9000,8.48828125,350,0,12,231111,225.6943359375,231419,225.9951171875,244731,238.9951171875
9017,8.5048828125,351,0,12,231111,225.6943359375,231419,225.9951171875,244731,238.9951171875
9031,8.5185546875,350,0,12,231111,225.6943359375,231419,225.9951171875,244731,238.9951171875
9054,8.541015625,351,0,12,231111,225.6943359375,231419,225.9951171875,244731,238.9951171875
9093,8.5791015625,350,0,12,231111,225.6943359375,231419,225.9951171875,244731,238.9951171875
9371,8.8505859375,351,0,12,231111,225.6943359375,231419,225.9951171875,244731,238.9951171875
9387,8.8662109375,101,-1,12,231111,225.6943359375,231419,225.9951171875,244731,238.9951171875
308,0.0,12,-1,13,248540,242.71484375,248848,243.015625,262160,256.015625
1332,1.0,1,-1,13,248540,242.71484375,248848,243.015625,262160,256.015625
8171,7.6787109375,350,0,13,248540,242.71484375,248848,243.015625,262160,256.015625
8231,7.7373046875,351,0,13,248540,242.71484375,248848,243.015625,262160,256.015625
8368,7.87109375,350,0,13,248540,242.71484375,248848,243.015625,262160,256.015625
8391,7.8935546875,351,0,13,248540,242.71484375,248848,243.015625,262160,256.015625
8469,7.9697265625,350,0,13,248540,242.71484375,248848,243.015625,262160,256.015625
8500,8.0,112,-1,13,248540,242.71484375,248848,243.015625,262160,256.015625
8578,8.076171875,351,0,13,248540,242.71484375,248848,243.015625,262160,256.015625
8602,8.099609375,350,0,13,248540,242.71484375,248848,243.015625,262160,256.015625
8615,8.1123046875,351,0,13,248540,242.71484375,248848,243.015625,262160,256.015625
8632,8.12890625,350,0,13,248540,242.71484375,248848,243.015625,262160,256.015625
8738,8.232421875,351,0,13,248540,242.71484375,248848,243.015625,262160,256.015625
8782,8.275390625,350,0,13,248540,242.71484375,248848,243.015625,262160,256.015625
8828,8.3203125,351,0,13,248540,242.71484375,248848,243.015625,262160,256.015625
8871,8.3623046875,350,0,13,248540,242.71484375,248848,243.015625,262160,256.015625
8911,8.4013671875,351,0,13,248540,242.71484375,248848,243.015625,262160,256.015625
8965,8.4541015625,350,0,13,248540,242.71484375,248848,243.015625,262160,256.015625
9217,8.7001953125,101,-1,13,248540,242.71484375,248848,243.015625,262160,256.015625
9253,8.7353515625,351,0,13,248540,242.71484375,248848,243.015625,262160,256.015625
308,0.0,12,-1,14,265786,259.556640625,266094,259.857421875,279406,272.857421875
1332,1.0,1,-1,14,265786,259.556640625,266094,259.857421875,279406,272.857421875
8502,8.001953125,112,-1,14,265786,259.556640625,266094,259.857421875,279406,272.857421875
8865,8.3564453125,350,0,14,265786,259.556640625,266094,259.857421875,279406,272.857421875
8902,8.392578125,351,0,14,265786,259.556640625,266094,259.857421875,279406,272.857421875
8962,8.451171875,350,0,14,265786,259.556640625,266094,259.857421875,279406,272.857421875
9178,8.662109375,101,-1,14,265786,259.556640625,266094,259.857421875,279406,272.857421875
9192,8.67578125,351,0,14,265786,259.556640625,266094,259.857421875,279406,272.857421875
308,0.0,12,-1,15,283004,276.37109375,283312,276.671875,296624,289.671875
1330,0.998046875,1,-1,15,283004,276.37109375,283312,276.671875,296624,289.671875
8130,7.638671875,350,0,15,283004,276.37109375,283312,276.671875,296624,289.671875
8165,7.6728515625,351,0,15,283004,276.37109375,283312,276.671875,296624,289.671875
8461,7.9619140625,350,0,15,283004,276.37109375,283312,276.671875,296624,289.671875
8483,7.9833984375,351,0,15,283004,276.37109375,283312,276.671875,296624,289.671875
8500,8.0,112,-1,15,283004,276.37109375,283312,276.671875,296624,289.671875
8888,8.37890625,350,0,15,283004,276.37109375,283312,276.671875,296624,289.671875
8965,8.4541015625,351,0,15,283004,276.37109375,283312,276.671875,296624,289.671875
8986,8.474609375,350,0,15,283004,276.37109375,283312,276.671875,296624,289.671875
9211,8.6943359375,101,-1,15,283004,276.37109375,283312,276.671875,296624,289.671875
9241,8.7236328125,351,0,15,283004,276.37109375,283312,276.671875,296624,289.671875
308,0.0,12,-1,16,300243,293.2060546875,300551,293.5068359375,313863,306.5068359375
1330,0.998046875,1,-1,16,300243,293.2060546875,300551,293.5068359375,313863,306.5068359375
8499,7.9990234375,112,-1,16,300243,293.2060546875,300551,293.5068359375,313863,306.5068359375
10157,9.6181640625,350,0,16,300243,293.2060546875,300551,293.5068359375,313863,306.5068359375
10213,9.6728515625,351,0,16,300243,293.2060546875,300551,293.5068359375,313863,306.5068359375
10345,9.8017578125,350,0,16,300243,293.2060546875,300551,293.5068359375,313863,306.5068359375
10404,9.859375,351,0,16,300243,293.2060546875,300551,293.5068359375,313863,306.5068359375
10474,9.927734375,350,0,16,300243,293.2060546875,300551,293.5068359375,313863,306.5068359375
10520,9.97265625,351,0,16,300243,293.2060546875,300551,293.5068359375,313863,306.5068359375
10541,9.9931640625,350,0,16,300243,293.2060546875,300551,293.5068359375,313863,306.5068359375
10723,10.1708984375,101,-1,16,300243,293.2060546875,300551,293.5068359375,313863,306.5068359375
10742,10.189453125,351,0,16,300243,293.2060546875,300551,293.5068359375,313863,306.5068359375
308,0.0,12,-1,17,319010,311.533203125,319318,311.833984375,332630,324.833984375
1332,1.0,1,-1,17,319010,311.533203125,319318,311.833984375,332630,324.833984375
8503,8.0029296875,112,-1,17,319010,311.533203125,319318,311.833984375,332630,324.833984375
9055,8.5419921875,350,0,17,319010,311.533203125,319318,311.833984375,332630,324.833984375
9368,8.84765625,101,-1,17,319010,311.533203125,319318,311.833984375,332630,324.833984375
9376,8.85546875,351,0,17,319010,311.533203125,319318,311.833984375,332630,324.833984375
308,0.0,15,-1,18,336419,328.5341796875,336727,328.8349609375,350039,341.8349609375
1332,1.0,1,-1,18,336419,328.5341796875,336727,328.8349609375,350039,341.8349609375
3851,3.4599609375,350,0,18,336419,328.5341796875,336727,328.8349609375,350039,341.8349609375
3900,3.5078125,351,0,18,336419,328.5341796875,336727,328.8349609375,350039,341.8349609375
3910,3.517578125,350,1,18,336419,328.5341796875,336727,328.8349609375,350039,341.8349609375
3930,3.537109375,351,1,18,336419,328.5341796875,336727,328.8349609375,350039,341.8349609375
3996,3.6015625,350,0,18,336419,328.5341796875,336727,328.8349609375,350039,341.8349609375
4030,3.634765625,351,0,18,336419,328.5341796875,336727,328.8349609375,350039,341.8349609375
4126,3.728515625,350,0,18,336419,328.5341796875,336727,328.8349609375,350039,341.8349609375
4143,3.7451171875,351,0,18,336419,328.5341796875,336727,328.8349609375,350039,341.8349609375
4204,3.8046875,350,0,18,336419,328.5341796875,336727,328.8349609375,350039,341.8349609375
4304,3.90234375,351,0,18,336419,328.5341796875,336727,328.8349609375,350039,341.8349609375
4386,3.982421875,350,0,18,336419,328.5341796875,336727,328.8349609375,350039,341.8349609375
4490,4.083984375,351,0,18,336419,328.5341796875,336727,328.8349609375,350039,341.8349609375
4591,4.1826171875,350,0,18,336419,328.5341796875,336727,328.8349609375,350039,341.8349609375
4616,4.20703125,351,0,18,336419,328.5341796875,336727,328.8349609375,350039,341.8349609375
4757,4.3447265625,350,0,18,336419,328.5341796875,336727,328.8349609375,350039,341.8349609375
4783,4.3701171875,351,0,18,336419,328.5341796875,336727,328.8349609375,350039,341.8349609375
5048,4.62890625,350,0,18,336419,328.5341796875,336727,328.8349609375,350039,341.8349609375
5078,4.658203125,351,0,18,336419,328.5341796875,336727,328.8349609375,350039,341.8349609375
8502,8.001953125,115,-1,18,336419,328.5341796875,336727,328.8349609375,350039,341.8349609375
8526,8.025390625,350,1,18,336419,328.5341796875,336727,328.8349609375,350039,341.8349609375
8548,8.046875,351,1,18,336419,328.5341796875,336727,328.8349609375,350039,341.8349609375
8826,8.318359375,350,1,18,336419,328.5341796875,336727,328.8349609375,350039,341.8349609375
9015,8.5029296875,103,-1,18,336419,328.5341796875,336727,328.8349609375,350039,341.8349609375
9051,8.5380859375,351,1,18,336419,328.5341796875,336727,328.8349609375,350039,341.8349609375
308,0.0,15,-1,19,353486,345.201171875,353794,345.501953125,367106,358.501953125
1331,0.9990234375,1,-1,19,353486,345.201171875,353794,345.501953125,367106,358.501953125
8501,8.0009765625,115,-1,19,353486,345.201171875,353794,345.501953125,367106,358.501953125
9188,8.671875,350,1,19,353486,345.201171875,353794,345.501953125,367106,358.501953125
9428,8.90625,103,-1,19,353486,345.201171875,353794,345.501953125,367106,358.501953125
9442,8.919921875,351,1,19,353486,345.201171875,353794,345.501953125,367106,358.501953125
308,0.0,15,-1,20,370950,362.255859375,371258,362.556640625,384570,375.556640625
1330,0.998046875,1,-1,20,370950,362.255859375,371258,362.556640625,384570,375.556640625
6092,5.6484375,350,1,20,370950,362.255859375,371258,362.556640625,384570,375.556640625
6208,5.76171875,351,1,20,370950,362.255859375,371258,362.556640625,384570,375.556640625
6290,5.841796875,350,1,20,370950,362.255859375,371258,362.556640625,384570,375.556640625
6361,5.9111328125,351,1,20,370950,362.255859375,371258,362.556640625,384570,375.556640625
8502,8.001953125,115,-1,20,370950,362.255859375,371258,362.556640625,384570,375.556640625
8606,8.103515625,350,1,20,370950,362.255859375,371258,362.556640625,384570,375.556640625
8677,8.1728515625,351,1,20,370950,362.255859375,371258,362.556640625,384570,375.556640625
8716,8.2109375,350,1,20,370950,362.255859375,371258,362.556640625,384570,375.556640625
8793,8.2861328125,351,1,20,370950,362.255859375,371258,362.556640625,384570,375.556640625
8825,8.3173828125,350,1,20,370950,362.255859375,371258,362.556640625,384570,375.556640625
8840,8.33203125,351,1,20,370950,362.255859375,371258,362.556640625,384570,375.556640625
8865,8.3564453125,350,1,20,370950,362.255859375,371258,362.556640625,384570,375.556640625
9081,8.5673828125,351,1,20,370950,362.255859375,371258,362.556640625,384570,375.556640625
9513,8.9892578125,350,1,20,370950,362.255859375,371258,362.556640625,384570,375.556640625
9574,9.048828125,351,1,20,370950,362.255859375,371258,362.556640625,384570,375.556640625
9766,9.236328125,350,1,20,370950,362.255859375,371258,362.556640625,384570,375.556640625
9862,9.330078125,351,1,20,370950,362.255859375,371258,362.556640625,384570,375.556640625
9880,9.34765625,350,1,20,370950,362.255859375,371258,362.556640625,384570,375.556640625
9956,9.421875,351,1,20,370950,362.255859375,371258,362.556640625,384570,375.556640625
9975,9.4404296875,350,0,20,370950,362.255859375,371258,362.556640625,384570,375.556640625
10014,9.478515625,350,1,20,370950,362.255859375,371258,362.556640625,384570,375.556640625
10018,9.482421875,351,0,20,370950,362.255859375,371258,362.556640625,384570,375.556640625
10081,9.5439453125,351,1,20,370950,362.255859375,371258,362.556640625,384570,375.556640625
10137,9.5986328125,350,1,20,370950,362.255859375,371258,362.556640625,384570,375.556640625
10186,9.646484375,351,1,20,370950,362.255859375,371258,362.556640625,384570,375.556640625
10208,9.66796875,350,1,20,370950,362.255859375,371258,362.556640625,384570,375.556640625
10411,9.8662109375,103,-1,20,370950,362.255859375,371258,362.556640625,384570,375.556640625
10466,9.919921875,351,1,20,370950,362.255859375,371258,362.556640625,384570,375.556640625
308,0.0,12,-1,21,389390,380.263671875,389698,380.564453125,403010,393.564453125
1332,1.0,1,-1,21,389390,380.263671875,389698,380.564453125,403010,393.564453125
1772,1.4296875,350,0,21,389390,380.263671875,389698,380.564453125,403010,393.564453125
1863,1.5185546875,351,0,21,389390,380.263671875,389698,380.564453125,403010,393.564453125
2172,1.8203125,350,0,21,389390,380.263671875,389698,380.564453125,403010,393.564453125
2189,1.8369140625,351,0,21,389390,380.263671875,389698,380.564453125,403010,393.564453125
2252,1.8984375,350,0,21,389390,380.263671875,389698,380.564453125,403010,393.564453125
2269,1.9150390625,351,0,21,389390,380.263671875,389698,380.564453125,403010,393.564453125
3264,2.88671875,350,0,21,389390,380.263671875,389698,380.564453125,403010,393.564453125
3297,2.9189453125,351,0,21,389390,380.263671875,389698,380.564453125,403010,393.564453125
4078,3.681640625,350,0,21,389390,380.263671875,389698,380.564453125,403010,393.564453125
4127,3.7294921875,351,0,21,389390,380.263671875,389698,380.564453125,403010,393.564453125
4557,4.1494140625,350,1,21,389390,380.263671875,389698,380.564453125,403010,393.564453125
4579,4.1708984375,351,1,21,389390,380.263671875,389698,380.564453125,403010,393.564453125
8503,8.0029296875,112,-1,21,389390,380.263671875,389698,380.564453125,403010,393.564453125
9160,8.64453125,350,0,21,389390,380.263671875,389698,380.564453125,403010,393.564453125
9332,8.8125,101,-1,21,389390,380.263671875,389698,380.564453125,403010,393.564453125
9391,8.8701171875,351,0,21,389390,380.263671875,389698,380.564453125,403010,393.564453125
308,0.0,12,-1,22,406762,397.228515625,407070,397.529296875,420382,410.529296875
1332,1.0,1,-1,22,406762,397.228515625,407070,397.529296875,420382,410.529296875
6603,6.1474609375,350,1,22,406762,397.228515625,407070,397.529296875,420382,410.529296875
6664,6.20703125,351,1,22,406762,397.228515625,407070,397.529296875,420382,410.529296875
6803,6.3427734375,350,1,22,406762,397.228515625,407070,397.529296875,420382,410.529296875
6860,6.3984375,351,1,22,406762,397.228515625,407070,397.529296875,420382,410.529296875
8503,8.0029296875,112,-1,22,406762,397.228515625,407070,397.529296875,420382,410.529296875
9299,8.7802734375,350,0,22,406762,397.228515625,407070,397.529296875,420382,410.529296875
9517,8.9931640625,101,-1,22,406762,397.228515625,407070,397.529296875,420382,410.529296875
9584,9.05859375,351,0,22,406762,397.228515625,407070,397.529296875,420382,410.529296875
308,0.0,12,-1,23,424309,414.3642578125,424617,414.6650390625,437929,427.6650390625
1332,1.0,1,-1,23,424309,414.3642578125,424617,414.6650390625,437929,427.6650390625
6997,6.5322265625,350,0,23,424309,414.3642578125,424617,414.6650390625,437929,427.6650390625
7026,6.560546875,351,0,23,424309,414.3642578125,424617,414.6650390625,437929,427.6650390625
8503,8.0029296875,112,-1,23,424309,414.3642578125,424617,414.6650390625,437929,427.6650390625
8896,8.38671875,350,0,23,424309,414.3642578125,424617,414.6650390625,437929,427.6650390625
9114,8.599609375,101,-1,23,424309,414.3642578125,424617,414.6650390625,437929,427.6650390625
9130,8.615234375,351,0,23,424309,414.3642578125,424617,414.6650390625,437929,427.6650390625
308,0.0,15,-1,24,441454,431.107421875,441762,431.408203125,455074,444.408203125
1330,0.998046875,1,-1,24,441454,431.107421875,441762,431.408203125,455074,444.408203125
1754,1.412109375,350,1,24,441454,431.107421875,441762,431.408203125,455074,444.408203125
1844,1.5,351,1,24,441454,431.107421875,441762,431.408203125,455074,444.408203125
1993,1.6455078125,350,1,24,441454,431.107421875,441762,431.408203125,455074,444.408203125
2038,1.689453125,351,1,24,441454,431.107421875,441762,431.408203125,455074,444.408203125
3309,2.9306640625,350,0,24,441454,431.107421875,441762,431.408203125,455074,444.408203125
3451,3.0693359375,351,0,24,441454,431.107421875,441762,431.408203125,455074,444.408203125
3663,3.2763671875,350,0,24,441454,431.107421875,441762,431.408203125,455074,444.408203125
3712,3.32421875,351,0,24,441454,431.107421875,441762,431.408203125,455074,444.408203125
3861,3.4697265625,350,0,24,441454,431.107421875,441762,431.408203125,455074,444.408203125
3900,3.5078125,351,0,24,441454,431.107421875,441762,431.408203125,455074,444.408203125
3921,3.5283203125,350,0,24,441454,431.107421875,441762,431.408203125,455074,444.408203125
3952,3.55859375,351,0,24,441454,431.107421875,441762,431.408203125,455074,444.408203125
6762,6.302734375,350,1,24,441454,431.107421875,441762,431.408203125,455074,444.408203125
6810,6.349609375,351,1,24,441454,431.107421875,441762,431.408203125,455074,444.408203125
6887,6.4248046875,350,1,24,441454,431.107421875,441762,431.408203125,455074,444.408203125
6959,6.4951171875,351,1,24,441454,431.107421875,441762,431.408203125,455074,444.408203125
7223,6.7529296875,350,1,24,441454,431.107421875,441762,431.408203125,455074,444.408203125
7281,6.8095703125,351,1,24,441454,431.107421875,441762,431.408203125,455074,444.408203125
8500,8.0,115,-1,24,441454,431.107421875,441762,431.408203125,455074,444.408203125
8863,8.3544921875,350,1,24,441454,431.107421875,441762,431.408203125,455074,444.408203125
8890,8.380859375,350,0,24,441454,431.107421875,441762,431.408203125,455074,444.408203125
8906,8.396484375,351,1,24,441454,431.107421875,441762,431.408203125,455074,444.408203125
8928,8.41796875,351,0,24,441454,431.107421875,441762,431.408203125,455074,444.408203125
8969,8.4580078125,350,1,24,441454,431.107421875,441762,431.408203125,455074,444.408203125
9068,8.5546875,351,1,24,441454,431.107421875,441762,431.408203125,455074,444.408203125
9088,8.57421875,350,1,24,441454,431.107421875,441762,431.408203125,455074,444.408203125
9280,8.76171875,103,-1,24,441454,431.107421875,441762,431.408203125,455074,444.408203125
9328,8.80859375,351,1,24,441454,431.107421875,441762,431.408203125,455074,444.408203125
308,0.0,12,-1,25,458765,448.0126953125,459073,448.3134765625,472385,461.3134765625
1331,0.9990234375,1,-1,25,458765,448.0126953125,459073,448.3134765625,472385,461.3134765625
5833,5.3955078125,350,0,25,458765,448.0126953125,459073,448.3134765625,472385,461.3134765625
5894,5.455078125,351,0,25,458765,448.0126953125,459073,448.3134765625,472385,461.3134765625
8502,8.001953125,112,-1,25,458765,448.0126953125,459073,448.3134765625,472385,461.3134765625
8712,8.20703125,350,0,25,458765,448.0126953125,459073,448.3134765625,472385,461.3134765625
8811,8.3037109375,351,0,25,458765,448.0126953125,459073,448.3134765625,472385,461.3134765625
8924,8.4140625,350,0,25,458765,448.0126953125,459073,448.3134765625,472385,461.3134765625
9209,8.6923828125,101,-1,25,458765,448.0126953125,459073,448.3134765625,472385,461.3134765625
9243,8.7255859375,351,0,25,458765,448.0126953125,459073,448.3134765625,472385,461.3134765625
308,0.0,15,-1,26,476005,464.8486328125,476313,465.1494140625,489625,478.1494140625
1333,1.0009765625,1,-1,26,476005,464.8486328125,476313,465.1494140625,489625,478.1494140625
8503,8.0029296875,115,-1,26,476005,464.8486328125,476313,465.1494140625,489625,478.1494140625
8641,8.1376953125,350,1,26,476005,464.8486328125,476313,465.1494140625,489625,478.1494140625
8697,8.1923828125,351,1,26,476005,464.8486328125,476313,465.1494140625,489625,478.1494140625
9016,8.50390625,350,1,26,476005,464.8486328125,476313,465.1494140625,489625,478.1494140625
9194,8.677734375,103,-1,26,476005,464.8486328125,476313,465.1494140625,489625,478.1494140625
9220,8.703125,351,1,26,476005,464.8486328125,476313,465.1494140625,489625,478.1494140625
308,0.0,15,-1,27,493229,481.6689453125,493537,481.9697265625,506849,494.9697265625
1332,1.0,1,-1,27,493229,481.6689453125,493537,481.9697265625,506849,494.9697265625
8503,8.0029296875,115,-1,27,493229,481.6689453125,493537,481.9697265625,506849,494.9697265625
8959,8.4482421875,350,1,27,493229,481.6689453125,493537,481.9697265625,506849,494.9697265625
9235,8.7177734375,103,-1,27,493229,481.6689453125,493537,481.9697265625,506849,494.9697265625
9242,8.724609375,351,1,27,493229,481.6689453125,493537,481.9697265625,506849,494.9697265625
308,0.0,15,-1,28,510493,498.5283203125,510801,498.8291015625,524113,511.8291015625
500,0.1875,350,0,28,510493,498.5283203125,510801,498.8291015625,524113,511.8291015625
560,0.24609375,351,0,28,510493,498.5283203125,510801,498.8291015625,524113,511.8291015625
606,0.291015625,350,0,28,510493,498.5283203125,510801,498.8291015625,524113,511.8291015625
661,0.3447265625,351,0,28,510493,498.5283203125,510801,498.8291015625,524113,511.8291015625
664,0.34765625,350,1,28,510493,498.5283203125,510801,498.8291015625,524113,511.8291015625
706,0.388671875,350,0,28,510493,498.5283203125,510801,498.8291015625,524113,511.8291015625
715,0.3974609375,351,1,28,510493,498.5283203125,510801,498.8291015625,524113,511.8291015625
755,0.4365234375,351,0,28,510493,498.5283203125,510801,498.8291015625,524113,511.8291015625
781,0.4619140625,350,0,28,510493,498.5283203125,510801,498.8291015625,524113,511.8291015625
813,0.4931640625,351,0,28,510493,498.5283203125,510801,498.8291015625,524113,511.8291015625
842,0.521484375,350,0,28,510493,498.5283203125,510801,498.8291015625,524113,511.8291015625
867,0.5458984375,351,0,28,510493,498.5283203125,510801,498.8291015625,524113,511.8291015625
912,0.58984375,350,0,28,510493,498.5283203125,510801,498.8291015625,524113,511.8291015625
964,0.640625,351,0,28,510493,498.5283203125,510801,498.8291015625,524113,511.8291015625
1066,0.740234375,350,0,28,510493,498.5283203125,510801,498.8291015625,524113,511.8291015625
1110,0.783203125,351,0,28,510493,498.5283203125,510801,498.8291015625,524113,511.8291015625
1156,0.828125,350,0,28,510493,498.5283203125,510801,498.8291015625,524113,511.8291015625
1210,0.880859375,351,0,28,510493,498.5283203125,510801,498.8291015625,524113,511.8291015625
1236,0.90625,350,0,28,510493,498.5283203125,510801,498.8291015625,524113,511.8291015625
1290,0.958984375,351,0,28,510493,498.5283203125,510801,498.8291015625,524113,511.8291015625
1332,1.0,1,-1,28,510493,498.5283203125,510801,498.8291015625,524113,511.8291015625
1338,1.005859375,350,0,28,510493,498.5283203125,510801,498.8291015625,524113,511.8291015625
1380,1.046875,351,0,28,510493,498.5283203125,510801,498.8291015625,524113,511.8291015625
1493,1.1572265625,350,1,28,510493,498.5283203125,510801,498.8291015625,524113,511.8291015625
1508,1.171875,350,0,28,510493,498.5283203125,510801,498.8291015625,524113,511.8291015625
1511,1.1748046875,351,1,28,510493,498.5283203125,510801,498.8291015625,524113,511.8291015625
1536,1.19921875,351,0,28,510493,498.5283203125,510801,498.8291015625,524113,511.8291015625
1581,1.2431640625,350,0,28,510493,498.5283203125,510801,498.8291015625,524113,511.8291015625
1613,1.2744140625,351,0,28,510493,498.5283203125,510801,498.8291015625,524113,511.8291015625
1737,1.3955078125,350,0,28,510493,498.5283203125,510801,498.8291015625,524113,511.8291015625
1753,1.4111328125,351,0,28,510493,498.5283203125,510801,498.8291015625,524113,511.8291015625
1839,1.4951171875,350,0,28,510493,498.5283203125,510801,498.8291015625,524113,511.8291015625
1869,1.5244140625,351,0,28,510493,498.5283203125,510801,498.8291015625,524113,511.8291015625
3830,3.439453125,350,1,28,510493,498.5283203125,510801,498.8291015625,524113,511.8291015625
3880,3.48828125,351,1,28,510493,498.5283203125,510801,498.8291015625,524113,511.8291015625
4552,4.14453125,350,1,28,510493,498.5283203125,510801,498.8291015625,524113,511.8291015625
4570,4.162109375,351,1,28,510493,498.5283203125,510801,498.8291015625,524113,511.8291015625
5669,5.2353515625,350,1,28,510493,498.5283203125,510801,498.8291015625,524113,511.8291015625
5730,5.294921875,351,1,28,510493,498.5283203125,510801,498.8291015625,524113,511.8291015625
6697,6.2392578125,350,1,28,510493,498.5283203125,510801,498.8291015625,524113,511.8291015625
6899,6.4365234375,351,1,28,510493,498.5283203125,510801,498.8291015625,524113,511.8291015625
6952,6.48828125,350,1,28,510493,498.5283203125,510801,498.8291015625,524113,511.8291015625
7101,6.6337890625,351,1,28,510493,498.5283203125,510801,498.8291015625,524113,511.8291015625
7116,6.6484375,350,1,28,510493,498.5283203125,510801,498.8291015625,524113,511.8291015625
7243,6.7724609375,351,1,28,510493,498.5283203125,510801,498.8291015625,524113,511.8291015625
7263,6.7919921875,350,1,28,510493,498.5283203125,510801,498.8291015625,524113,511.8291015625
7340,6.8671875,351,1,28,510493,498.5283203125,510801,498.8291015625,524113,511.8291015625
7376,6.90234375,350,1,28,510493,498.5283203125,510801,498.8291015625,524113,511.8291015625
7505,7.0283203125,351,1,28,510493,498.5283203125,510801,498.8291015625,524113,511.8291015625
7532,7.0546875,350,1,28,510493,498.5283203125,510801,498.8291015625,524113,511.8291015625
7632,7.15234375,351,1,28,510493,498.5283203125,510801,498.8291015625,524113,511.8291015625
7674,7.193359375,350,1,28,510493,498.5283203125,510801,498.8291015625,524113,511.8291015625
7744,7.26171875,351,1,28,510493,498.5283203125,510801,498.8291015625,524113,511.8291015625
7771,7.2880859375,350,1,28,510493,498.5283203125,510801,498.8291015625,524113,511.8291015625
7831,7.3466796875,351,1,28,510493,498.5283203125,510801,498.8291015625,524113,511.8291015625
7863,7.3779296875,350,1,28,510493,498.5283203125,510801,498.8291015625,524113,511.8291015625
7925,7.4384765625,351,1,28,510493,498.5283203125,510801,498.8291015625,524113,511.8291015625
8503,8.0029296875,115,-1,28,510493,498.5283203125,510801,498.8291015625,524113,511.8291015625
8641,8.1376953125,350,1,28,510493,498.5283203125,510801,498.8291015625,524113,511.8291015625
8680,8.17578125,351,1,28,510493,498.5283203125,510801,498.8291015625,524113,511.8291015625
8728,8.22265625,350,1,28,510493,498.5283203125,510801,498.8291015625,524113,511.8291015625
8883,8.3740234375,351,1,28,510493,498.5283203125,510801,498.8291015625,524113,511.8291015625
8910,8.400390625,350,1,28,510493,498.5283203125,510801,498.8291015625,524113,511.8291015625
9184,8.66796875,103,-1,28,510493,498.5283203125,510801,498.8291015625,524113,511.8291015625
9205,8.6884765625,351,1,28,510493,498.5283203125,510801,498.8291015625,524113,511.8291015625
308,0.0,12,-1,29,527693,515.3251953125,528001,515.6259765625,541313,528.6259765625
1330,0.998046875,350,1,29,527693,515.3251953125,528001,515.6259765625,541313,528.6259765625
1332,1.0,1,-1,29,527693,515.3251953125,528001,515.6259765625,541313,528.6259765625
1405,1.0712890625,351,1,29,527693,515.3251953125,528001,515.6259765625,541313,528.6259765625
6135,5.6904296875,350,0,29,527693,515.3251953125,528001,515.6259765625,541313,528.6259765625
6180,5.734375,351,0,29,527693,515.3251953125,528001,515.6259765625,541313,528.6259765625
8503,8.0029296875,112,-1,29,527693,515.3251953125,528001,515.6259765625,541313,528.6259765625
9097,8.5830078125,350,0,29,527693,515.3251953125,528001,515.6259765625,541313,528.6259765625
9312,8.79296875,101,-1,29,527693,515.3251953125,528001,515.6259765625,541313,528.6259765625
9315,8.7958984375,351,0,29,527693,515.3251953125,528001,515.6259765625,541313,528.6259765625
308,0.0,15,-1,30,545028,532.25390625,545336,532.5546875,558648,545.5546875
1332,1.0,1,-1,30,545028,532.25390625,545336,532.5546875,558648,545.5546875
8072,7.58203125,350,1,30,545028,532.25390625,545336,532.5546875,558648,545.5546875
8141,7.6494140625,351,1,30,545028,532.25390625,545336,532.5546875,558648,545.5546875
8263,7.7685546875,350,1,30,545028,532.25390625,545336,532.5546875,558648,545.5546875
8291,7.7958984375,351,1,30,545028,532.25390625,545336,532.5546875,558648,545.5546875
8504,8.00390625,115,-1,30,545028,532.25390625,545336,532.5546875,558648,545.5546875
9138,8.623046875,350,1,30,545028,532.25390625,545336,532.5546875,558648,545.5546875
9334,8.814453125,351,1,30,545028,532.25390625,545336,532.5546875,558648,545.5546875
9338,8.818359375,103,-1,30,545028,532.25390625,545336,532.5546875,558648,545.5546875
308,0.0,15,-1,31,562393,549.2119140625,562701,549.5126953125,576013,562.5126953125
1332,1.0,1,-1,31,562393,549.2119140625,562701,549.5126953125,576013,562.5126953125
8127,7.6357421875,350,1,31,562393,549.2119140625,562701,549.5126953125,576013,562.5126953125
8196,7.703125,351,1,31,562393,549.2119140625,562701,549.5126953125,576013,562.5126953125
8503,8.0029296875,115,-1,31,562393,549.2119140625,562701,549.5126953125,576013,562.5126953125
8934,8.423828125,350,1,31,562393,549.2119140625,562701,549.5126953125,576013,562.5126953125
9136,8.62109375,103,-1,31,562393,549.2119140625,562701,549.5126953125,576013,562.5126953125
9162,8.646484375,351,1,31,562393,549.2119140625,562701,549.5126953125,576013,562.5126953125
308,0.0,15,-1,32,579565,565.9814453125,579873,566.2822265625,593185,579.2822265625
1333,1.0009765625,1,-1,32,579565,565.9814453125,579873,566.2822265625,593185,579.2822265625
5987,5.5458984375,350,1,32,579565,565.9814453125,579873,566.2822265625,593185,579.2822265625
6005,5.5634765625,351,1,32,579565,565.9814453125,579873,566.2822265625,593185,579.2822265625
6019,5.5771484375,350,1,32,579565,565.9814453125,579873,566.2822265625,593185,579.2822265625
6102,5.658203125,351,1,32,579565,565.9814453125,579873,566.2822265625,593185,579.2822265625
8061,7.5712890625,350,1,32,579565,565.9814453125,579873,566.2822265625,593185,579.2822265625
8138,7.646484375,351,1,32,579565,565.9814453125,579873,566.2822265625,593185,579.2822265625
8503,8.0029296875,115,-1,32,579565,565.9814453125,579873,566.2822265625,593185,579.2822265625
9639,9.1123046875,350,1,32,579565,565.9814453125,579873,566.2822265625,593185,579.2822265625
9852,9.3203125,350,0,32,579565,565.9814453125,579873,566.2822265625,593185,579.2822265625
9878,9.345703125,351,0,32,579565,565.9814453125,579873,566.2822265625,593185,579.2822265625
9889,9.3564453125,103,-1,32,579565,565.9814453125,579873,566.2822265625,593185,579.2822265625
9914,9.380859375,351,1,32,579565,565.9814453125,579873,566.2822265625,593185,579.2822265625
308,0.0,12,-1,33,597492,583.48828125,597800,583.7890625,611112,596.7890625
883,0.5615234375,350,0,33,597492,583.48828125,597800,583.7890625,611112,596.7890625
943,0.6201171875,351,0,33,597492,583.48828125,597800,583.7890625,611112,596.7890625
1332,1.0,1,-1,33,597492,583.48828125,597800,583.7890625,611112,596.7890625
8503,8.0029296875,112,-1,33,597492,583.48828125,597800,583.7890625,611112,596.7890625
9081,8.5673828125,350,0,33,597492,583.48828125,597800,583.7890625,611112,596.7890625
9298,8.779296875,101,-1,33,597492,583.48828125,597800,583.7890625,611112,596.7890625
9339,8.8193359375,351,0,33,597492,583.48828125,597800,583.7890625,611112,596.7890625
308,0.0,12,-1,34,614816,600.40625,615124,600.70703125,628436,613.70703125
1334,1.001953125,1,-1,34,614816,600.40625,615124,600.70703125,628436,613.70703125
8504,8.00390625,112,-1,34,614816,600.40625,615124,600.70703125,628436,613.70703125
9098,8.583984375,350,0,34,614816,600.40625,615124,600.70703125,628436,613.70703125
9293,8.7744140625,101,-1,34,614816,600.40625,615124,600.70703125,628436,613.70703125
9318,8.798828125,351,0,34,614816,600.40625,615124,600.70703125,628436,613.70703125
308,0.0,12,-1,35,632125,617.3095703125,632433,617.6103515625,645745,630.6103515625
1332,1.0,1,-1,35,632125,617.3095703125,632433,617.6103515625,645745,630.6103515625
8187,7.6943359375,350,0,35,632125,617.3095703125,632433,617.6103515625,645745,630.6103515625
8217,7.7236328125,351,0,35,632125,617.3095703125,632433,617.6103515625,645745,630.6103515625
8502,8.001953125,112,-1,35,632125,617.3095703125,632433,617.6103515625,645745,630.6103515625
8772,8.265625,350,0,35,632125,617.3095703125,632433,617.6103515625,645745,630.6103515625
9085,8.5712890625,101,-1,35,632125,617.3095703125,632433,617.6103515625,645745,630.6103515625
9113,8.5986328125,351,0,35,632125,617.3095703125,632433,617.6103515625,645745,630.6103515625
308,0.0,15,-1,36,649230,634.013671875,649538,634.314453125,662850,647.314453125
1331,0.9990234375,1,-1,36,649230,634.013671875,649538,634.314453125,662850,647.314453125
1856,1.51171875,350,1,36,649230,634.013671875,649538,634.314453125,662850,647.314453125
1960,1.61328125,351,1,36,649230,634.013671875,649538,634.314453125,662850,647.314453125
2158,1.806640625,350,1,36,649230,634.013671875,649538,634.314453125,662850,647.314453125
2187,1.8349609375,351,1,36,649230,634.013671875,649538,634.314453125,662850,647.314453125
2701,2.3369140625,350,1,36,649230,634.013671875,649538,634.314453125,662850,647.314453125
2715,2.3505859375,351,1,36,649230,634.013671875,649538,634.314453125,662850,647.314453125
3589,3.2041015625,350,1,36,649230,634.013671875,649538,634.314453125,662850,647.314453125
3615,3.2294921875,351,1,36,649230,634.013671875,649538,634.314453125,662850,647.314453125
5093,4.6728515625,350,1,36,649230,634.013671875,649538,634.314453125,662850,647.314453125
5108,4.6875,351,1,36,649230,634.013671875,649538,634.314453125,662850,647.314453125
8503,8.0029296875,115,-1,36,649230,634.013671875,649538,634.314453125,662850,647.314453125
9260,8.7421875,350,1,36,649230,634.013671875,649538,634.314453125,662850,647.314453125
9336,8.81640625,351,1,36,649230,634.013671875,649538,634.314453125,662850,647.314453125
9351,8.8310546875,350,1,36,649230,634.013671875,649538,634.314453125,662850,647.314453125
9542,9.017578125,103,-1,36,649230,634.013671875,649538,634.314453125,662850,647.314453125
9574,9.048828125,351,1,36,649230,634.013671875,649538,634.314453125,662850,647.314453125
308,0.0,15,-1,37,666784,651.15625,667092,651.45703125,680404,664.45703125
1331,0.9990234375,1,-1,37,666784,651.15625,667092,651.45703125,680404,664.45703125
1376,1.04296875,350,1,37,666784,651.15625,667092,651.45703125,680404,664.45703125
1456,1.12109375,351,1,37,666784,651.15625,667092,651.45703125,680404,664.45703125
4544,4.13671875,350,1,37,666784,651.15625,667092,651.45703125,680404,664.45703125
4613,4.2041015625,351,1,37,666784,651.15625,667092,651.45703125,680404,664.45703125
5178,4.755859375,350,1,37,666784,651.15625,667092,651.45703125,680404,664.45703125
5247,4.8232421875,351,1,37,666784,651.15625,667092,651.45703125,680404,664.45703125
5638,5.205078125,350,1,37,666784,651.15625,667092,651.45703125,680404,664.45703125
5712,5.27734375,351,1,37,666784,651.15625,667092,651.45703125,680404,664.45703125
8389,7.8916015625,350,1,37,666784,651.15625,667092,651.45703125,680404,664.45703125
8429,7.9306640625,351,1,37,666784,651.15625,667092,651.45703125,680404,664.45703125
8501,8.0009765625,115,-1,37,666784,651.15625,667092,651.45703125,680404,664.45703125
8845,8.3369140625,350,1,37,666784,651.15625,667092,651.45703125,680404,664.45703125
8900,8.390625,351,1,37,666784,651.15625,667092,651.45703125,680404,664.45703125
9102,8.587890625,350,1,37,666784,651.15625,667092,651.45703125,680404,664.45703125
9130,8.615234375,351,1,37,666784,651.15625,667092,651.45703125,680404,664.45703125
9224,8.70703125,350,1,37,666784,651.15625,667092,651.45703125,680404,664.45703125
9255,8.7373046875,351,1,37,666784,651.15625,667092,651.45703125,680404,664.45703125
9317,8.7978515625,350,1,37,666784,651.15625,667092,651.45703125,680404,664.45703125
9531,9.0068359375,103,-1,37,666784,651.15625,667092,651.45703125,680404,664.45703125
9536,9.01171875,351,1,37,666784,651.15625,667092,651.45703125,680404,664.45703125
308,0.0,15,-1,38,684339,668.2998046875,684647,668.6005859375,697959,681.6005859375
1333,1.0009765625,1,-1,38,684339,668.2998046875,684647,668.6005859375,697959,681.6005859375
8504,8.00390625,115,-1,38,684339,668.2998046875,684647,668.6005859375,697959,681.6005859375
8855,8.3466796875,350,1,38,684339,668.2998046875,684647,668.6005859375,697959,681.6005859375
8954,8.443359375,350,0,38,684339,668.2998046875,684647,668.6005859375,697959,681.6005859375
8957,8.4462890625,351,1,38,684339,668.2998046875,684647,668.6005859375,697959,681.6005859375
8975,8.4638671875,350,1,38,684339,668.2998046875,684647,668.6005859375,697959,681.6005859375
8996,8.484375,351,0,38,684339,668.2998046875,684647,668.6005859375,697959,681.6005859375
9051,8.5380859375,351,1,38,684339,668.2998046875,684647,668.6005859375,697959,681.6005859375
9066,8.552734375,350,1,38,684339,668.2998046875,684647,668.6005859375,697959,681.6005859375
9304,8.78515625,103,-1,38,684339,668.2998046875,684647,668.6005859375,697959,681.6005859375
9346,8.826171875,351,1,38,684339,668.2998046875,684647,668.6005859375,697959,681.6005859375
308,0.0,15,-1,39,701668,685.22265625,701976,685.5234375,715288,698.5234375
1331,0.9990234375,1,-1,39,701668,685.22265625,701976,685.5234375,715288,698.5234375
8265,7.7705078125,350,1,39,701668,685.22265625,701976,685.5234375,715288,698.5234375
8324,7.828125,351,1,39,701668,685.22265625,701976,685.5234375,715288,698.5234375
8503,8.0029296875,115,-1,39,701668,685.22265625,701976,685.5234375,715288,698.5234375
8875,8.3662109375,350,0,39,701668,685.22265625,701976,685.5234375,715288,698.5234375
8890,8.380859375,350,1,39,701668,685.22265625,701976,685.5234375,715288,698.5234375
8904,8.39453125,351,0,39,701668,685.22265625,701976,685.5234375,715288,698.5234375
9116,8.6015625,103,-1,39,701668,685.22265625,701976,685.5234375,715288,698.5234375
9119,8.6044921875,351,1,39,701668,685.22265625,701976,685.5234375,715288,698.5234375
308,0.0,16,-1,40,735087,717.8583984375,735395,718.1591796875,748707,731.1591796875
1331,0.9990234375,1,-1,40,735087,717.8583984375,735395,718.1591796875,748707,731.1591796875
6932,6.46875,350,1,40,735087,717.8583984375,735395,718.1591796875,748707,731.1591796875
6988,6.5234375,351,1,40,735087,717.8583984375,735395,718.1591796875,748707,731.1591796875
8500,8.0,116,-1,40,735087,717.8583984375,735395,718.1591796875,748707,731.1591796875
8880,8.37109375,350,1,40,735087,717.8583984375,735395,718.1591796875,748707,731.1591796875
8944,8.43359375,351,1,40,735087,717.8583984375,735395,718.1591796875,748707,731.1591796875
9166,8.650390625,350,1,40,735087,717.8583984375,735395,718.1591796875,748707,731.1591796875
9248,8.73046875,351,1,40,735087,717.8583984375,735395,718.1591796875,748707,731.1591796875
9287,8.7685546875,350,1,40,735087,717.8583984375,735395,718.1591796875,748707,731.1591796875
9514,8.990234375,103,-1,40,735087,717.8583984375,735395,718.1591796875,748707,731.1591796875
9563,9.0380859375,351,1,40,735087,717.8583984375,735395,718.1591796875,748707,731.1591796875
308,0.0,16,-1,41,756715,738.9794921875,757023,739.2802734375,770335,752.2802734375
1332,1.0,1,-1,41,756715,738.9794921875,757023,739.2802734375,770335,752.2802734375
8502,8.001953125,116,-1,41,756715,738.9794921875,757023,739.2802734375,770335,752.2802734375
9370,8.849609375,350,1,41,756715,738.9794921875,757023,739.2802734375,770335,752.2802734375
9420,8.8984375,351,1,41,756715,738.9794921875,757023,739.2802734375,770335,752.2802734375
9475,8.9521484375,350,1,41,756715,738.9794921875,757023,739.2802734375,770335,752.2802734375
9645,9.1181640625,103,-1,41,756715,738.9794921875,757023,739.2802734375,770335,752.2802734375
9691,9.1630859375,351,1,41,756715,738.9794921875,757023,739.2802734375,770335,752.2802734375
308,0.0,13,-1,42,778476,760.23046875,778784,760.53125,792096,773.53125
1288,0.95703125,350,0,42,778476,760.23046875,778784,760.53125,792096,773.53125
1329,0.9970703125,1,-1,42,778476,760.23046875,778784,760.53125,792096,773.53125
1466,1.130859375,351,0,42,778476,760.23046875,778784,760.53125,792096,773.53125
8500,8.0,113,-1,42,778476,760.23046875,778784,760.53125,792096,773.53125
8902,8.392578125,350,0,42,778476,760.23046875,778784,760.53125,792096,773.53125
9151,8.6357421875,101,-1,42,778476,760.23046875,778784,760.53125,792096,773.53125
9175,8.6591796875,351,0,42,778476,760.23046875,778784,760.53125,792096,773.53125
308,0.0,13,-1,43,799763,781.0185546875,800071,781.3193359375,813383,794.3193359375
1329,0.9970703125,1,-1,43,799763,781.0185546875,800071,781.3193359375,813383,794.3193359375
8499,7.9990234375,113,-1,43,799763,781.0185546875,800071,781.3193359375,813383,794.3193359375
9148,8.6328125,350,0,43,799763,781.0185546875,800071,781.3193359375,813383,794.3193359375
9198,8.681640625,351,0,43,799763,781.0185546875,800071,781.3193359375,813383,794.3193359375
9244,8.7265625,350,0,43,799763,781.0185546875,800071,781.3193359375,813383,794.3193359375
9293,8.7744140625,351,0,43,799763,781.0185546875,800071,781.3193359375,813383,794.3193359375
9423,8.9013671875,350,0,43,799763,781.0185546875,800071,781.3193359375,813383,794.3193359375
9449,8.9267578125,351,0,43,799763,781.0185546875,800071,781.3193359375,813383,794.3193359375
9463,8.9404296875,350,0,43,799763,781.0185546875,800071,781.3193359375,813383,794.3193359375
9486,8.962890625,351,0,43,799763,781.0185546875,800071,781.3193359375,813383,794.3193359375
9525,9.0009765625,350,0,43,799763,781.0185546875,800071,781.3193359375,813383,794.3193359375
9592,9.06640625,351,0,43,799763,781.0185546875,800071,781.3193359375,813383,794.3193359375
9659,9.1318359375,350,0,43,799763,781.0185546875,800071,781.3193359375,813383,794.3193359375
9709,9.1806640625,351,0,43,799763,781.0185546875,800071,781.3193359375,813383,794.3193359375
9897,9.3642578125,350,0,43,799763,781.0185546875,800071,781.3193359375,813383,794.3193359375
9916,9.3828125,351,0,43,799763,781.0185546875,800071,781.3193359375,813383,794.3193359375
9971,9.4365234375,350,0,43,799763,781.0185546875,800071,781.3193359375,813383,794.3193359375
10000,9.46484375,351,0,43,799763,781.0185546875,800071,781.3193359375,813383,794.3193359375
10036,9.5,350,0,43,799763,781.0185546875,800071,781.3193359375,813383,794.3193359375
10081,9.5439453125,351,0,43,799763,781.0185546875,800071,781.3193359375,813383,794.3193359375
10119,9.5810546875,350,0,43,799763,781.0185546875,800071,781.3193359375,813383,794.3193359375
10288,9.74609375,101,-1,43,799763,781.0185546875,800071,781.3193359375,813383,794.3193359375
10327,9.7841796875,351,0,43,799763,781.0185546875,800071,781.3193359375,813383,794.3193359375
308,0.0,16,-1,44,822171,802.9013671875,822479,803.2021484375,835791,816.2021484375
1158,0.830078125,350,1,44,822171,802.9013671875,822479,803.2021484375,835791,816.2021484375
1229,0.8994140625,351,1,44,822171,802.9013671875,822479,803.2021484375,835791,816.2021484375
1333,1.0009765625,1,-1,44,822171,802.9013671875,822479,803.2021484375,835791,816.2021484375
8503,8.0029296875,116,-1,44,822171,802.9013671875,822479,803.2021484375,835791,816.2021484375
8980,8.46875,350,1,44,822171,802.9013671875,822479,803.2021484375,835791,816.2021484375
9189,8.6728515625,103,-1,44,822171,802.9013671875,822479,803.2021484375,835791,816.2021484375
9212,8.6953125,351,1,44,822171,802.9013671875,822479,803.2021484375,835791,816.2021484375
308,0.0,13,-1,45,843508,823.73828125,843816,824.0390625,857128,837.0390625
1330,0.998046875,1,-1,45,843508,823.73828125,843816,824.0390625,857128,837.0390625
1361,1.0283203125,350,0,45,843508,823.73828125,843816,824.0390625,857128,837.0390625
1426,1.091796875,351,0,45,843508,823.73828125,843816,824.0390625,857128,837.0390625
1476,1.140625,350,0,45,843508,823.73828125,843816,824.0390625,857128,837.0390625
1515,1.1787109375,351,0,45,843508,823.73828125,843816,824.0390625,857128,837.0390625
1677,1.3369140625,350,0,45,843508,823.73828125,843816,824.0390625,857128,837.0390625
1715,1.3740234375,351,0,45,843508,823.73828125,843816,824.0390625,857128,837.0390625
1994,1.646484375,350,0,45,843508,823.73828125,843816,824.0390625,857128,837.0390625
2054,1.705078125,351,0,45,843508,823.73828125,843816,824.0390625,857128,837.0390625
2220,1.8671875,350,0,45,843508,823.73828125,843816,824.0390625,857128,837.0390625
2249,1.8955078125,351,0,45,843508,823.73828125,843816,824.0390625,857128,837.0390625
2520,2.16015625,350,0,45,843508,823.73828125,843816,824.0390625,857128,837.0390625
2536,2.17578125,351,0,45,843508,823.73828125,843816,824.0390625,857128,837.0390625
2596,2.234375,350,0,45,843508,823.73828125,843816,824.0390625,857128,837.0390625
2611,2.2490234375,351,0,45,843508,823.73828125,843816,824.0390625,857128,837.0390625
2720,2.35546875,350,0,45,843508,823.73828125,843816,824.0390625,857128,837.0390625
2737,2.3720703125,351,0,45,843508,823.73828125,843816,824.0390625,857128,837.0390625
2912,2.54296875,350,0,45,843508,823.73828125,843816,824.0390625,857128,837.0390625
2928,2.55859375,351,0,45,843508,823.73828125,843816,824.0390625,857128,837.0390625
2976,2.60546875,350,0,45,843508,823.73828125,843816,824.0390625,857128,837.0390625
3033,2.6611328125,351,0,45,843508,823.73828125,843816,824.0390625,857128,837.0390625
3145,2.7705078125,350,0,45,843508,823.73828125,843816,824.0390625,857128,837.0390625
3181,2.8056640625,351,0,45,843508,823.73828125,843816,824.0390625,857128,837.0390625
8499,7.9990234375,113,-1,45,843508,823.73828125,843816,824.0390625,857128,837.0390625
9009,8.4970703125,350,0,45,843508,823.73828125,843816,824.0390625,857128,837.0390625
9069,8.5556640625,351,0,45,843508,823.73828125,843816,824.0390625,857128,837.0390625
9109,8.5947265625,350,0,45,843508,823.73828125,843816,824.0390625,857128,837.0390625
9155,8.6396484375,351,0,45,843508,823.73828125,843816,824.0390625,857128,837.0390625
9176,8.66015625,350,0,45,843508,823.73828125,843816,824.0390625,857128,837.0390625
9204,8.6875,351,0,45,843508,823.73828125,843816,824.0390625,857128,837.0390625
9220,8.703125,350,0,45,843508,823.73828125,843816,824.0390625,857128,837.0390625
9365,8.8447265625,101,-1,45,843508,823.73828125,843816,824.0390625,857128,837.0390625
9373,8.8525390625,351,0,45,843508,823.73828125,843816,824.0390625,857128,837.0390625
308,0.0,13,-1,46,865007,844.7333984375,865315,845.0341796875,878627,858.0341796875
625,0.3095703125,350,0,46,865007,844.7333984375,865315,845.0341796875,878627,858.0341796875
672,0.35546875,351,0,46,865007,844.7333984375,865315,845.0341796875,878627,858.0341796875
726,0.408203125,350,0,46,865007,844.7333984375,865315,845.0341796875,878627,858.0341796875
764,0.4453125,351,0,46,865007,844.7333984375,865315,845.0341796875,878627,858.0341796875
812,0.4921875,350,0,46,865007,844.7333984375,865315,845.0341796875,878627,858.0341796875
873,0.5517578125,351,0,46,865007,844.7333984375,865315,845.0341796875,878627,858.0341796875
939,0.6162109375,350,0,46,865007,844.7333984375,865315,845.0341796875,878627,858.0341796875
995,0.6708984375,351,0,46,865007,844.7333984375,865315,845.0341796875,878627,858.0341796875
1032,0.70703125,350,0,46,865007,844.7333984375,865315,845.0341796875,878627,858.0341796875
1076,0.75,351,0,46,865007,844.7333984375,865315,845.0341796875,878627,858.0341796875
1102,0.775390625,350,0,46,865007,844.7333984375,865315,845.0341796875,878627,858.0341796875
1203,0.8740234375,351,0,46,865007,844.7333984375,865315,845.0341796875,878627,858.0341796875
1226,0.896484375,350,0,46,865007,844.7333984375,865315,845.0341796875,878627,858.0341796875
1298,0.966796875,351,0,46,865007,844.7333984375,865315,845.0341796875,878627,858.0341796875
1331,0.9990234375,1,-1,46,865007,844.7333984375,865315,845.0341796875,878627,858.0341796875
1353,1.0205078125,350,0,46,865007,844.7333984375,865315,845.0341796875,878627,858.0341796875
1389,1.0556640625,351,0,46,865007,844.7333984375,865315,845.0341796875,878627,858.0341796875
1437,1.1025390625,350,0,46,865007,844.7333984375,865315,845.0341796875,878627,858.0341796875
1556,1.21875,351,0,46,865007,844.7333984375,865315,845.0341796875,878627,858.0341796875
1578,1.240234375,350,0,46,865007,844.7333984375,865315,845.0341796875,878627,858.0341796875
1674,1.333984375,351,0,46,865007,844.7333984375,865315,845.0341796875,878627,858.0341796875
1784,1.44140625,350,0,46,865007,844.7333984375,865315,845.0341796875,878627,858.0341796875
1799,1.4560546875,351,0,46,865007,844.7333984375,865315,845.0341796875,878627,858.0341796875
1961,1.6142578125,350,0,46,865007,844.7333984375,865315,845.0341796875,878627,858.0341796875
1978,1.630859375,351,0,46,865007,844.7333984375,865315,845.0341796875,878627,858.0341796875
6219,5.7724609375,350,0,46,865007,844.7333984375,865315,845.0341796875,878627,858.0341796875
6243,5.7958984375,351,0,46,865007,844.7333984375,865315,845.0341796875,878627,858.0341796875
6376,5.92578125,350,0,46,865007,844.7333984375,865315,845.0341796875,878627,858.0341796875
6393,5.9423828125,351,0,46,865007,844.7333984375,865315,845.0341796875,878627,858.0341796875
6516,6.0625,350,0,46,865007,844.7333984375,865315,845.0341796875,878627,858.0341796875
6536,6.08203125,351,0,46,865007,844.7333984375,865315,845.0341796875,878627,858.0341796875
8501,8.0009765625,113,-1,46,865007,844.7333984375,865315,845.0341796875,878627,858.0341796875
9559,9.0341796875,350,0,46,865007,844.7333984375,865315,845.0341796875,878627,858.0341796875
9787,9.2568359375,351,0,46,865007,844.7333984375,865315,845.0341796875,878627,858.0341796875
9882,9.349609375,350,0,46,865007,844.7333984375,865315,845.0341796875,878627,858.0341796875
9992,9.45703125,101,-1,46,865007,844.7333984375,865315,845.0341796875,878627,858.0341796875
10021,9.4853515625,351,0,46,865007,844.7333984375,865315,845.0341796875,878627,858.0341796875
308,0.0,13,-1,47,887138,866.345703125,887446,866.646484375,900758,879.646484375
556,0.2421875,350,0,47,887138,866.345703125,887446,866.646484375,900758,879.646484375
597,0.2822265625,351,0,47,887138,866.345703125,887446,866.646484375,900758,879.646484375
635,0.3193359375,350,0,47,887138,866.345703125,887446,866.646484375,900758,879.646484375
683,0.3662109375,351,0,47,887138,866.345703125,887446,866.646484375,900758,879.646484375
754,0.435546875,350,0,47,887138,866.345703125,887446,866.646484375,900758,879.646484375
813,0.4931640625,351,0,47,887138,866.345703125,887446,866.646484375,900758,879.646484375
965,0.6416015625,350,0,47,887138,866.345703125,887446,866.646484375,900758,879.646484375
1033,0.7080078125,351,0,47,887138,866.345703125,887446,866.646484375,900758,879.646484375
1113,0.7861328125,350,0,47,887138,866.345703125,887446,866.646484375,900758,879.646484375
1214,0.884765625,351,0,47,887138,866.345703125,887446,866.646484375,900758,879.646484375
1234,0.904296875,350,0,47,887138,866.345703125,887446,866.646484375,900758,879.646484375
1277,0.9462890625,351,0,47,887138,866.345703125,887446,866.646484375,900758,879.646484375
1300,0.96875,350,0,47,887138,866.345703125,887446,866.646484375,900758,879.646484375
1330,0.998046875,1,-1,47,887138,866.345703125,887446,866.646484375,900758,879.646484375
1343,1.0107421875,351,0,47,887138,866.345703125,887446,866.646484375,900758,879.646484375
1415,1.0810546875,350,0,47,887138,866.345703125,887446,866.646484375,900758,879.646484375
1490,1.154296875,351,0,47,887138,866.345703125,887446,866.646484375,900758,879.646484375
1550,1.212890625,350,0,47,887138,866.345703125,887446,866.646484375,900758,879.646484375
1623,1.2841796875,351,0,47,887138,866.345703125,887446,866.646484375,900758,879.646484375
1699,1.3583984375,350,0,47,887138,866.345703125,887446,866.646484375,900758,879.646484375
1715,1.3740234375,351,0,47,887138,866.345703125,887446,866.646484375,900758,879.646484375
5523,5.0927734375,350,0,47,887138,866.345703125,887446,866.646484375,900758,879.646484375
5544,5.11328125,351,0,47,887138,866.345703125,887446,866.646484375,900758,879.646484375
5681,5.2470703125,350,0,47,887138,866.345703125,887446,866.646484375,900758,879.646484375
5697,5.2626953125,351,0,47,887138,866.345703125,887446,866.646484375,900758,879.646484375
5770,5.333984375,350,0,47,887138,866.345703125,887446,866.646484375,900758,879.646484375
5823,5.3857421875,351,0,47,887138,866.345703125,887446,866.646484375,900758,879.646484375
5897,5.4580078125,350,0,47,887138,866.345703125,887446,866.646484375,900758,879.646484375
5947,5.5068359375,351,0,47,887138,866.345703125,887446,866.646484375,900758,879.646484375
6045,5.6025390625,350,0,47,887138,866.345703125,887446,866.646484375,900758,879.646484375
6076,5.6328125,351,0,47,887138,866.345703125,887446,866.646484375,900758,879.646484375
6156,5.7109375,350,0,47,887138,866.345703125,887446,866.646484375,900758,879.646484375
6173,5.7275390625,351,0,47,887138,866.345703125,887446,866.646484375,900758,879.646484375
6268,5.8203125,350,0,47,887138,866.345703125,887446,866.646484375,900758,879.646484375
6285,5.8369140625,351,0,47,887138,866.345703125,887446,866.646484375,900758,879.646484375
6350,5.900390625,350,0,47,887138,866.345703125,887446,866.646484375,900758,879.646484375
6366,5.916015625,351,0,47,887138,866.345703125,887446,866.646484375,900758,879.646484375
6414,5.962890625,350,0,47,887138,866.345703125,887446,866.646484375,900758,879.646484375
6462,6.009765625,351,0,47,887138,866.345703125,887446,866.646484375,900758,879.646484375
6537,6.0830078125,350,0,47,887138,866.345703125,887446,866.646484375,900758,879.646484375
6554,6.099609375,351,0,47,887138,866.345703125,887446,866.646484375,900758,879.646484375
6607,6.1513671875,350,0,47,887138,866.345703125,887446,866.646484375,900758,879.646484375
6632,6.17578125,351,0,47,887138,866.345703125,887446,866.646484375,900758,879.646484375
6703,6.2451171875,350,0,47,887138,866.345703125,887446,866.646484375,900758,879.646484375
6729,6.2705078125,351,0,47,887138,866.345703125,887446,866.646484375,900758,879.646484375
6798,6.337890625,350,0,47,887138,866.345703125,887446,866.646484375,900758,879.646484375
6814,6.353515625,351,0,47,887138,866.345703125,887446,866.646484375,900758,879.646484375
6859,6.3974609375,350,0,47,887138,866.345703125,887446,866.646484375,900758,879.646484375
6914,6.451171875,351,0,47,887138,866.345703125,887446,866.646484375,900758,879.646484375
6994,6.529296875,350,0,47,887138,866.345703125,887446,866.646484375,900758,879.646484375
7010,6.544921875,351,0,47,887138,866.345703125,887446,866.646484375,900758,879.646484375
7071,6.6044921875,350,0,47,887138,866.345703125,887446,866.646484375,900758,879.646484375
7106,6.638671875,351,0,47,887138,866.345703125,887446,866.646484375,900758,879.646484375
7162,6.693359375,350,0,47,887138,866.345703125,887446,866.646484375,900758,879.646484375
7217,6.7470703125,351,0,47,887138,866.345703125,887446,866.646484375,900758,879.646484375
7314,6.841796875,350,0,47,887138,866.345703125,887446,866.646484375,900758,879.646484375
7336,6.86328125,351,0,47,887138,866.345703125,887446,866.646484375,900758,879.646484375
7384,6.91015625,350,0,47,887138,866.345703125,887446,866.646484375,900758,879.646484375
7441,6.9658203125,351,0,47,887138,866.345703125,887446,866.646484375,900758,879.646484375
7535,7.0576171875,350,0,47,887138,866.345703125,887446,866.646484375,900758,879.646484375
7551,7.0732421875,351,0,47,887138,866.345703125,887446,866.646484375,900758,879.646484375
7597,7.1181640625,350,0,47,887138,866.345703125,887446,866.646484375,900758,879.646484375
7652,7.171875,351,0,47,887138,866.345703125,887446,866.646484375,900758,879.646484375
7715,7.2333984375,350,0,47,887138,866.345703125,887446,866.646484375,900758,879.646484375
7755,7.2724609375,351,0,47,887138,866.345703125,887446,866.646484375,900758,879.646484375
7815,7.3310546875,350,0,47,887138,866.345703125,887446,866.646484375,900758,879.646484375
7845,7.3603515625,351,0,47,887138,866.345703125,887446,866.646484375,900758,879.646484375
7911,7.4248046875,350,0,47,887138,866.345703125,887446,866.646484375,900758,879.646484375
7927,7.4404296875,351,0,47,887138,866.345703125,887446,866.646484375,900758,879.646484375
7968,7.48046875,350,0,47,887138,866.345703125,887446,866.646484375,900758,879.646484375
8018,7.529296875,351,0,47,887138,866.345703125,887446,866.646484375,900758,879.646484375
8054,7.564453125,350,0,47,887138,866.345703125,887446,866.646484375,900758,879.646484375
8094,7.603515625,351,0,47,887138,866.345703125,887446,866.646484375,900758,879.646484375
8153,7.6611328125,350,0,47,887138,866.345703125,887446,866.646484375,900758,879.646484375
8185,7.6923828125,351,0,47,887138,866.345703125,887446,866.646484375,900758,879.646484375
8254,7.759765625,350,0,47,887138,866.345703125,887446,866.646484375,900758,879.646484375
8285,7.7900390625,351,0,47,887138,866.345703125,887446,866.646484375,900758,879.646484375
8313,7.8173828125,350,0,47,887138,866.345703125,887446,866.646484375,900758,879.646484375
8350,7.853515625,351,0,47,887138,866.345703125,887446,866.646484375,900758,879.646484375
8411,7.9130859375,350,0,47,887138,866.345703125,887446,866.646484375,900758,879.646484375
8443,7.9443359375,351,0,47,887138,866.345703125,887446,866.646484375,900758,879.646484375
8497,7.9970703125,350,0,47,887138,866.345703125,887446,866.646484375,900758,879.646484375
8500,8.0,113,-1,47,887138,866.345703125,887446,866.646484375,900758,879.646484375
8527,8.0263671875,351,0,47,887138,866.345703125,887446,866.646484375,900758,879.646484375
8605,8.1025390625,350,0,47,887138,866.345703125,887446,866.646484375,900758,879.646484375
8621,8.1181640625,351,0,47,887138,866.345703125,887446,866.646484375,900758,879.646484375
8708,8.203125,350,0,47,887138,866.345703125,887446,866.646484375,900758,879.646484375
8724,8.21875,351,0,47,887138,866.345703125,887446,866.646484375,900758,879.646484375
8824,8.31640625,350,0,47,887138,866.345703125,887446,866.646484375,900758,879.646484375
8840,8.33203125,351,0,47,887138,866.345703125,887446,866.646484375,900758,879.646484375
8959,8.4482421875,350,0,47,887138,866.345703125,887446,866.646484375,900758,879.646484375
8996,8.484375,351,0,47,887138,866.345703125,887446,866.646484375,900758,879.646484375
9134,8.619140625,350,0,47,887138,866.345703125,887446,866.646484375,900758,879.646484375
9150,8.634765625,351,0,47,887138,866.345703125,887446,866.646484375,900758,879.646484375
9230,8.712890625,350,0,47,887138,866.345703125,887446,866.646484375,900758,879.646484375
9286,8.767578125,351,0,47,887138,866.345703125,887446,866.646484375,900758,879.646484375
9342,8.822265625,350,0,47,887138,866.345703125,887446,866.646484375,900758,879.646484375
9379,8.8583984375,351,0,47,887138,866.345703125,887446,866.646484375,900758,879.646484375
9419,8.8974609375,350,0,47,887138,866.345703125,887446,866.646484375,900758,879.646484375
9715,9.1865234375,101,-1,47,887138,866.345703125,887446,866.646484375,900758,879.646484375
9748,9.21875,351,0,47,887138,866.345703125,887446,866.646484375,900758,879.646484375
308,0.0,16,-1,48,908982,887.677734375,909290,887.978515625,922602,900.978515625
649,0.3330078125,350,1,48,908982,887.677734375,909290,887.978515625,922602,900.978515625
710,0.392578125,351,1,48,908982,887.677734375,909290,887.978515625,922602,900.978515625
840,0.51953125,350,1,48,908982,887.677734375,909290,887.978515625,922602,900.978515625
914,0.591796875,351,1,48,908982,887.677734375,909290,887.978515625,922602,900.978515625
916,0.59375,350,0,48,908982,887.677734375,909290,887.978515625,922602,900.978515625
935,0.6123046875,351,0,48,908982,887.677734375,909290,887.978515625,922602,900.978515625
936,0.61328125,350,1,48,908982,887.677734375,909290,887.978515625,922602,900.978515625
990,0.666015625,351,1,48,908982,887.677734375,909290,887.978515625,922602,900.978515625
1332,1.0,1,-1,48,908982,887.677734375,909290,887.978515625,922602,900.978515625
2751,2.3857421875,350,1,48,908982,887.677734375,909290,887.978515625,922602,900.978515625
2874,2.505859375,351,1,48,908982,887.677734375,909290,887.978515625,922602,900.978515625
2943,2.5732421875,350,1,48,908982,887.677734375,909290,887.978515625,922602,900.978515625
2981,2.6103515625,351,1,48,908982,887.677734375,909290,887.978515625,922602,900.978515625
3351,2.9716796875,350,1,48,908982,887.677734375,909290,887.978515625,922602,900.978515625
3401,3.0205078125,351,1,48,908982,887.677734375,909290,887.978515625,922602,900.978515625
3719,3.3310546875,350,1,48,908982,887.677734375,909290,887.978515625,922602,900.978515625
3761,3.3720703125,351,1,48,908982,887.677734375,909290,887.978515625,922602,900.978515625
3822,3.431640625,350,1,48,908982,887.677734375,909290,887.978515625,922602,900.978515625
3880,3.48828125,351,1,48,908982,887.677734375,909290,887.978515625,922602,900.978515625
5762,5.326171875,350,0,48,908982,887.677734375,909290,887.978515625,922602,900.978515625
5822,5.384765625,351,0,48,908982,887.677734375,909290,887.978515625,922602,900.978515625
5932,5.4921875,350,0,48,908982,887.677734375,909290,887.978515625,922602,900.978515625
5953,5.5126953125,351,0,48,908982,887.677734375,909290,887.978515625,922602,900.978515625
6049,5.6064453125,350,0,48,908982,887.677734375,909290,887.978515625,922602,900.978515625
6079,5.6357421875,351,0,48,908982,887.677734375,909290,887.978515625,922602,900.978515625
6168,5.72265625,350,0,48,908982,887.677734375,909290,887.978515625,922602,900.978515625
6195,5.7490234375,351,0,48,908982,887.677734375,909290,887.978515625,922602,900.978515625
6237,5.7900390625,350,0,48,908982,887.677734375,909290,887.978515625,922602,900.978515625
6288,5.83984375,351,0,48,908982,887.677734375,909290,887.978515625,922602,900.978515625
6374,5.923828125,350,0,48,908982,887.677734375,909290,887.978515625,922602,900.978515625
6410,5.958984375,351,0,48,908982,887.677734375,909290,887.978515625,922602,900.978515625
6479,6.0263671875,350,0,48,908982,887.677734375,909290,887.978515625,922602,900.978515625
6507,6.0537109375,351,0,48,908982,887.677734375,909290,887.978515625,922602,900.978515625
6609,6.1533203125,350,0,48,908982,887.677734375,909290,887.978515625,922602,900.978515625
6625,6.1689453125,351,0,48,908982,887.677734375,909290,887.978515625,922602,900.978515625
6693,6.2353515625,350,0,48,908982,887.677734375,909290,887.978515625,922602,900.978515625
6714,6.255859375,351,0,48,908982,887.677734375,909290,887.978515625,922602,900.978515625
6797,6.3369140625,350,0,48,908982,887.677734375,909290,887.978515625,922602,900.978515625
6812,6.3515625,351,0,48,908982,887.677734375,909290,887.978515625,922602,900.978515625
6883,6.4208984375,350,0,48,908982,887.677734375,909290,887.978515625,922602,900.978515625
6900,6.4375,351,0,48,908982,887.677734375,909290,887.978515625,922602,900.978515625
6956,6.4921875,350,0,48,908982,887.677734375,909290,887.978515625,922602,900.978515625
6985,6.5205078125,351,0,48,908982,887.677734375,909290,887.978515625,922602,900.978515625
7057,6.5908203125,350,0,48,908982,887.677734375,909290,887.978515625,922602,900.978515625
7073,6.6064453125,351,0,48,908982,887.677734375,909290,887.978515625,922602,900.978515625
7117,6.6494140625,350,0,48,908982,887.677734375,909290,887.978515625,922602,900.978515625
7144,6.67578125,351,0,48,908982,887.677734375,909290,887.978515625,922602,900.978515625
7199,6.7294921875,350,0,48,908982,887.677734375,909290,887.978515625,922602,900.978515625
7228,6.7578125,351,0,48,908982,887.677734375,909290,887.978515625,922602,900.978515625
7288,6.81640625,350,0,48,908982,887.677734375,909290,887.978515625,922602,900.978515625
7310,6.837890625,351,0,48,908982,887.677734375,909290,887.978515625,922602,900.978515625
7345,6.8720703125,350,0,48,908982,887.677734375,909290,887.978515625,922602,900.978515625
7390,6.916015625,351,0,48,908982,887.677734375,909290,887.978515625,922602,900.978515625
7439,6.9638671875,350,0,48,908982,887.677734375,909290,887.978515625,922602,900.978515625
7497,7.0205078125,351,0,48,908982,887.677734375,909290,887.978515625,922602,900.978515625
7581,7.1025390625,350,0,48,908982,887.677734375,909290,887.978515625,922602,900.978515625
7601,7.1220703125,351,0,48,908982,887.677734375,909290,887.978515625,922602,900.978515625
7655,7.1748046875,350,0,48,908982,887.677734375,909290,887.978515625,922602,900.978515625
7695,7.2138671875,351,0,48,908982,887.677734375,909290,887.978515625,922602,900.978515625
7780,7.296875,350,0,48,908982,887.677734375,909290,887.978515625,922602,900.978515625
7796,7.3125,351,0,48,908982,887.677734375,909290,887.978515625,922602,900.978515625
7845,7.3603515625,350,0,48,908982,887.677734375,909290,887.978515625,922602,900.978515625
7903,7.4169921875,351,0,48,908982,887.677734375,909290,887.978515625,922602,900.978515625
7969,7.4814453125,350,0,48,908982,887.677734375,909290,887.978515625,922602,900.978515625
7991,7.5029296875,351,0,48,908982,887.677734375,909290,887.978515625,922602,900.978515625
8082,7.591796875,350,0,48,908982,887.677734375,909290,887.978515625,922602,900.978515625
8099,7.6083984375,351,0,48,908982,887.677734375,909290,887.978515625,922602,900.978515625
8169,7.6767578125,350,0,48,908982,887.677734375,909290,887.978515625,922602,900.978515625
8230,7.736328125,351,0,48,908982,887.677734375,909290,887.978515625,922602,900.978515625
8273,7.7783203125,350,0,48,908982,887.677734375,909290,887.978515625,922602,900.978515625
8325,7.8291015625,351,0,48,908982,887.677734375,909290,887.978515625,922602,900.978515625
8431,7.9326171875,350,0,48,908982,887.677734375,909290,887.978515625,922602,900.978515625
8486,7.986328125,351,0,48,908982,887.677734375,909290,887.978515625,922602,900.978515625
8503,8.0029296875,116,-1,48,908982,887.677734375,909290,887.978515625,922602,900.978515625
8595,8.0927734375,350,0,48,908982,887.677734375,909290,887.978515625,922602,900.978515625
8636,8.1328125,351,0,48,908982,887.677734375,909290,887.978515625,922602,900.978515625
8785,8.2783203125,350,0,48,908982,887.677734375,909290,887.978515625,922602,900.978515625
8803,8.2958984375,351,0,48,908982,887.677734375,909290,887.978515625,922602,900.978515625
8897,8.3876953125,350,1,48,908982,887.677734375,909290,887.978515625,922602,900.978515625
8913,8.4033203125,350,0,48,908982,887.677734375,909290,887.978515625,922602,900.978515625
8930,8.419921875,351,0,48,908982,887.677734375,909290,887.978515625,922602,900.978515625
8969,8.4580078125,351,1,48,908982,887.677734375,909290,887.978515625,922602,900.978515625
8983,8.4716796875,350,0,48,908982,887.677734375,909290,887.978515625,922602,900.978515625
9018,8.505859375,350,1,48,908982,887.677734375,909290,887.978515625,922602,900.978515625
9043,8.5302734375,351,0,48,908982,887.677734375,909290,887.978515625,922602,900.978515625
9119,8.6044921875,350,0,48,908982,887.677734375,909290,887.978515625,922602,900.978515625
9128,8.61328125,351,1,48,908982,887.677734375,909290,887.978515625,922602,900.978515625
9141,8.6259765625,350,1,48,908982,887.677734375,909290,887.978515625,922602,900.978515625
9176,8.66015625,351,0,48,908982,887.677734375,909290,887.978515625,922602,900.978515625
9211,8.6943359375,351,1,48,908982,887.677734375,909290,887.978515625,922602,900.978515625
9247,8.7294921875,350,1,48,908982,887.677734375,909290,887.978515625,922602,900.978515625
9280,8.76171875,351,1,48,908982,887.677734375,909290,887.978515625,922602,900.978515625
9283,8.7646484375,350,0,48,908982,887.677734375,909290,887.978515625,922602,900.978515625
9300,8.78125,351,0,48,908982,887.677734375,909290,887.978515625,922602,900.978515625
9347,8.8271484375,350,0,48,908982,887.677734375,909290,887.978515625,922602,900.978515625
9404,8.8828125,351,0,48,908982,887.677734375,909290,887.978515625,922602,900.978515625
9478,8.955078125,350,0,48,908982,887.677734375,909290,887.978515625,922602,900.978515625
9495,8.9716796875,351,0,48,908982,887.677734375,909290,887.978515625,922602,900.978515625
9608,9.08203125,350,0,48,908982,887.677734375,909290,887.978515625,922602,900.978515625
9624,9.09765625,351,0,48,908982,887.677734375,909290,887.978515625,922602,900.978515625
9693,9.1650390625,350,1,48,908982,887.677734375,909290,887.978515625,922602,900.978515625
9704,9.17578125,350,0,48,908982,887.677734375,909290,887.978515625,922602,900.978515625
9730,9.201171875,351,0,48,908982,887.677734375,909290,887.978515625,922602,900.978515625
9809,9.2783203125,350,0,48,908982,887.677734375,909290,887.978515625,922602,900.978515625
9825,9.2939453125,351,0,48,908982,887.677734375,909290,887.978515625,922602,900.978515625
9831,9.2998046875,103,-1,48,908982,887.677734375,909290,887.978515625,922602,900.978515625
9869,9.3369140625,351,1,48,908982,887.677734375,909290,887.978515625,922602,900.978515625
308,0.0,16,-1,49,930945,909.1259765625,931253,909.4267578125,944565,922.4267578125
1331,0.9990234375,1,-1,49,930945,909.1259765625,931253,909.4267578125,944565,922.4267578125
6881,6.4189453125,350,0,49,930945,909.1259765625,931253,909.4267578125,944565,922.4267578125
6941,6.4775390625,351,0,49,930945,909.1259765625,931253,909.4267578125,944565,922.4267578125
7042,6.576171875,350,0,49,930945,909.1259765625,931253,909.4267578125,944565,922.4267578125
7088,6.62109375,351,0,49,930945,909.1259765625,931253,909.4267578125,944565,922.4267578125
7174,6.705078125,350,0,49,930945,909.1259765625,931253,909.4267578125,944565,922.4267578125
7210,6.740234375,351,0,49,930945,909.1259765625,931253,909.4267578125,944565,922.4267578125
7321,6.8486328125,350,0,49,930945,909.1259765625,931253,909.4267578125,944565,922.4267578125
7379,6.9052734375,351,0,49,930945,909.1259765625,931253,909.4267578125,944565,922.4267578125
7487,7.0107421875,350,0,49,930945,909.1259765625,931253,909.4267578125,944565,922.4267578125
7536,7.05859375,351,0,49,930945,909.1259765625,931253,909.4267578125,944565,922.4267578125
7633,7.1533203125,350,0,49,930945,909.1259765625,931253,909.4267578125,944565,922.4267578125
7672,7.19140625,351,0,49,930945,909.1259765625,931253,909.4267578125,944565,922.4267578125
7856,7.37109375,350,0,49,930945,909.1259765625,931253,909.4267578125,944565,922.4267578125
7873,7.3876953125,351,0,49,930945,909.1259765625,931253,909.4267578125,944565,922.4267578125
8043,7.5537109375,350,0,49,930945,909.1259765625,931253,909.4267578125,944565,922.4267578125
8061,7.5712890625,351,0,49,930945,909.1259765625,931253,909.4267578125,944565,922.4267578125
8173,7.6806640625,350,0,49,930945,909.1259765625,931253,909.4267578125,944565,922.4267578125
8217,7.7236328125,351,0,49,930945,909.1259765625,931253,909.4267578125,944565,922.4267578125
8318,7.822265625,350,0,49,930945,909.1259765625,931253,909.4267578125,944565,922.4267578125
8347,7.8505859375,351,0,49,930945,909.1259765625,931253,909.4267578125,944565,922.4267578125
8477,7.9775390625,350,0,49,930945,909.1259765625,931253,909.4267578125,944565,922.4267578125
8494,7.994140625,351,0,49,930945,909.1259765625,931253,909.4267578125,944565,922.4267578125
8501,8.0009765625,116,-1,49,930945,909.1259765625,931253,909.4267578125,944565,922.4267578125
8603,8.1005859375,350,0,49,930945,909.1259765625,931253,909.4267578125,944565,922.4267578125
8626,8.123046875,351,0,49,930945,909.1259765625,931253,909.4267578125,944565,922.4267578125
8720,8.21484375,350,0,49,930945,909.1259765625,931253,909.4267578125,944565,922.4267578125
8754,8.248046875,351,0,49,930945,909.1259765625,931253,909.4267578125,944565,922.4267578125
8831,8.3232421875,350,0,49,930945,909.1259765625,931253,909.4267578125,944565,922.4267578125
8892,8.3828125,351,0,49,930945,909.1259765625,931253,909.4267578125,944565,922.4267578125
9102,8.587890625,350,0,49,930945,909.1259765625,931253,909.4267578125,944565,922.4267578125
9119,8.6044921875,351,0,49,930945,909.1259765625,931253,909.4267578125,944565,922.4267578125
9292,8.7734375,350,0,49,930945,909.1259765625,931253,909.4267578125,944565,922.4267578125
9340,8.8203125,351,0,49,930945,909.1259765625,931253,909.4267578125,944565,922.4267578125
9402,8.880859375,350,0,49,930945,909.1259765625,931253,909.4267578125,944565,922.4267578125
9430,8.908203125,350,1,49,930945,909.1259765625,931253,909.4267578125,944565,922.4267578125
9463,8.9404296875,351,0,49,930945,909.1259765625,931253,909.4267578125,944565,922.4267578125
9517,8.9931640625,350,0,49,930945,909.1259765625,931253,909.4267578125,944565,922.4267578125
9571,9.0458984375,351,0,49,930945,909.1259765625,931253,909.4267578125,944565,922.4267578125
9608,9.08203125,351,1,49,930945,909.1259765625,931253,909.4267578125,944565,922.4267578125
9621,9.0947265625,350,1,49,930945,909.1259765625,931253,909.4267578125,944565,922.4267578125
9659,9.1318359375,350,0,49,930945,909.1259765625,931253,909.4267578125,944565,922.4267578125
9692,9.1640625,351,0,49,930945,909.1259765625,931253,909.4267578125,944565,922.4267578125
9693,9.1650390625,351,1,49,930945,909.1259765625,931253,909.4267578125,944565,922.4267578125
9711,9.1826171875,350,1,49,930945,909.1259765625,931253,909.4267578125,944565,922.4267578125
9801,9.2705078125,350,0,49,930945,909.1259765625,931253,909.4267578125,944565,922.4267578125
9821,9.2900390625,351,0,49,930945,909.1259765625,931253,909.4267578125,944565,922.4267578125
9905,9.3720703125,350,0,49,930945,909.1259765625,931253,909.4267578125,944565,922.4267578125
9926,9.392578125,351,0,49,930945,909.1259765625,931253,909.4267578125,944565,922.4267578125
9995,9.4599609375,350,0,49,930945,909.1259765625,931253,909.4267578125,944565,922.4267578125
10012,9.4765625,103,-1,49,930945,909.1259765625,931253,909.4267578125,944565,922.4267578125
10026,9.490234375,351,0,49,930945,909.1259765625,931253,909.4267578125,944565,922.4267578125
10046,9.509765625,351,1,49,930945,909.1259765625,931253,909.4267578125,944565,922.4267578125
308,0.0,13,-1,50,953065,930.7275390625,953373,931.0283203125,966685,944.0283203125
1330,0.998046875,1,-1,50,953065,930.7275390625,953373,931.0283203125,966685,944.0283203125
8238,7.744140625,350,0,50,953065,930.7275390625,953373,931.0283203125,966685,944.0283203125
8257,7.7626953125,351,0,50,953065,930.7275390625,953373,931.0283203125,966685,944.0283203125
8501,8.0009765625,113,-1,50,953065,930.7275390625,953373,931.0283203125,966685,944.0283203125
8624,8.12109375,350,0,50,953065,930.7275390625,953373,931.0283203125,966685,944.0283203125
8691,8.1865234375,351,0,50,953065,930.7275390625,953373,931.0283203125,966685,944.0283203125
8772,8.265625,350,0,50,953065,930.7275390625,953373,931.0283203125,966685,944.0283203125
8789,8.2822265625,351,0,50,953065,930.7275390625,953373,931.0283203125,966685,944.0283203125
8887,8.3779296875,350,0,50,953065,930.7275390625,953373,931.0283203125,966685,944.0283203125
8909,8.3994140625,351,0,50,953065,930.7275390625,953373,931.0283203125,966685,944.0283203125
8944,8.43359375,350,0,50,953065,930.7275390625,953373,931.0283203125,966685,944.0283203125
9006,8.494140625,351,0,50,953065,930.7275390625,953373,931.0283203125,966685,944.0283203125
9043,8.5302734375,350,0,50,953065,930.7275390625,953373,931.0283203125,966685,944.0283203125
9090,8.576171875,351,0,50,953065,930.7275390625,953373,931.0283203125,966685,944.0283203125
9125,8.6103515625,350,0,50,953065,930.7275390625,953373,931.0283203125,966685,944.0283203125
9403,8.8818359375,101,-1,50,953065,930.7275390625,953373,931.0283203125,966685,944.0283203125
9456,8.93359375,351,0,50,953065,930.7275390625,953373,931.0283203125,966685,944.0283203125
308,0.0,16,-1,51,974592,951.75,974900,952.05078125,988212,965.05078125
1247,0.9169921875,350,1,51,974592,951.75,974900,952.05078125,988212,965.05078125
1319,0.9873046875,351,1,51,974592,951.75,974900,952.05078125,988212,965.05078125
1332,1.0,1,-1,51,974592,951.75,974900,952.05078125,988212,965.05078125
1338,1.005859375,350,1,51,974592,951.75,974900,952.05078125,988212,965.05078125
1410,1.076171875,351,1,51,974592,951.75,974900,952.05078125,988212,965.05078125
1499,1.1630859375,350,1,51,974592,951.75,974900,952.05078125,988212,965.05078125
1538,1.201171875,351,1,51,974592,951.75,974900,952.05078125,988212,965.05078125
1558,1.220703125,350,1,51,974592,951.75,974900,952.05078125,988212,965.05078125
1834,1.490234375,351,1,51,974592,951.75,974900,952.05078125,988212,965.05078125
1875,1.5302734375,350,1,51,974592,951.75,974900,952.05078125,988212,965.05078125
1955,1.6083984375,351,1,51,974592,951.75,974900,952.05078125,988212,965.05078125
8502,8.001953125,116,-1,51,974592,951.75,974900,952.05078125,988212,965.05078125
8810,8.302734375,350,1,51,974592,951.75,974900,952.05078125,988212,965.05078125
8841,8.3330078125,351,1,51,974592,951.75,974900,952.05078125,988212,965.05078125
8909,8.3994140625,350,1,51,974592,951.75,974900,952.05078125,988212,965.05078125
9302,8.783203125,103,-1,51,974592,951.75,974900,952.05078125,988212,965.05078125
9374,8.853515625,351,1,51,974592,951.75,974900,952.05078125,988212,965.05078125
308,0.0,16,-1,52,996014,972.669921875,996322,972.970703125,1009634,985.970703125
619,0.3037109375,350,1,52,996014,972.669921875,996322,972.970703125,1009634,985.970703125
725,0.4072265625,351,1,52,996014,972.669921875,996322,972.970703125,1009634,985.970703125
1333,1.0009765625,1,-1,52,996014,972.669921875,996322,972.970703125,1009634,985.970703125
1497,1.1611328125,350,1,52,996014,972.669921875,996322,972.970703125,1009634,985.970703125
1556,1.21875,351,1,52,996014,972.669921875,996322,972.970703125,1009634,985.970703125
8503,8.0029296875,116,-1,52,996014,972.669921875,996322,972.970703125,1009634,985.970703125
9138,8.623046875,350,1,52,996014,972.669921875,996322,972.970703125,1009634,985.970703125
9255,8.7373046875,351,1,52,996014,972.669921875,996322,972.970703125,1009634,985.970703125
9281,8.7626953125,350,1,52,996014,972.669921875,996322,972.970703125,1009634,985.970703125
9524,9.0,103,-1,52,996014,972.669921875,996322,972.970703125,1009634,985.970703125
9553,9.0283203125,351,1,52,996014,972.669921875,996322,972.970703125,1009634,985.970703125
308,0.0,16,-1,53,1017661,993.8095703125,1017969,994.1103515625,1031281,1007.1103515625
1332,1.0,1,-1,53,1017661,993.8095703125,1017969,994.1103515625,1031281,1007.1103515625
8503,8.0029296875,116,-1,53,1017661,993.8095703125,1017969,994.1103515625,1031281,1007.1103515625
8986,8.474609375,350,1,53,1017661,993.8095703125,1017969,994.1103515625,1031281,1007.1103515625
9156,8.640625,103,-1,53,1017661,993.8095703125,1017969,994.1103515625,1031281,1007.1103515625
9177,8.6611328125,351,1,53,1017661,993.8095703125,1017969,994.1103515625,1031281,1007.1103515625
308,0.0,16,-1,54,1038953,1014.6025390625,1039261,1014.9033203125,1052573,1027.9033203125
1332,1.0,1,-1,54,1038953,1014.6025390625,1039261,1014.9033203125,1052573,1027.9033203125
1547,1.2099609375,350,0,54,1038953,1014.6025390625,1039261,1014.9033203125,1052573,1027.9033203125
1602,1.263671875,351,0,54,1038953,1014.6025390625,1039261,1014.9033203125,1052573,1027.9033203125
2899,2.5302734375,350,1,54,1038953,1014.6025390625,1039261,1014.9033203125,1052573,1027.9033203125
2965,2.5947265625,351,1,54,1038953,1014.6025390625,1039261,1014.9033203125,1052573,1027.9033203125
3307,2.9287109375,350,1,54,1038953,1014.6025390625,1039261,1014.9033203125,1052573,1027.9033203125
3402,3.021484375,351,1,54,1038953,1014.6025390625,1039261,1014.9033203125,1052573,1027.9033203125
3540,3.15625,350,1,54,1038953,1014.6025390625,1039261,1014.9033203125,1052573,1027.9033203125
3582,3.197265625,351,1,54,1038953,1014.6025390625,1039261,1014.9033203125,1052573,1027.9033203125
8503,8.0029296875,116,-1,54,1038953,1014.6025390625,1039261,1014.9033203125,1052573,1027.9033203125
9034,8.521484375,350,1,54,1038953,1014.6025390625,1039261,1014.9033203125,1052573,1027.9033203125
9134,8.619140625,351,1,54,1038953,1014.6025390625,1039261,1014.9033203125,1052573,1027.9033203125
9157,8.6416015625,350,1,54,1038953,1014.6025390625,1039261,1014.9033203125,1052573,1027.9033203125
9335,8.8154296875,103,-1,54,1038953,1014.6025390625,1039261,1014.9033203125,1052573,1027.9033203125
9393,8.8720703125,351,1,54,1038953,1014.6025390625,1039261,1014.9033203125,1052573,1027.9033203125
308,0.0,16,-1,55,1060407,1035.5537109375,1060715,1035.8544921875,1074027,1048.8544921875
1332,1.0,1,-1,55,1060407,1035.5537109375,1060715,1035.8544921875,1074027,1048.8544921875
8107,7.6162109375,350,1,55,1060407,1035.5537109375,1060715,1035.8544921875,1074027,1048.8544921875
8165,7.6728515625,351,1,55,1060407,1035.5537109375,1060715,1035.8544921875,1074027,1048.8544921875
8405,7.9072265625,350,1,55,1060407,1035.5537109375,1060715,1035.8544921875,1074027,1048.8544921875
8464,7.96484375,351,1,55,1060407,1035.5537109375,1060715,1035.8544921875,1074027,1048.8544921875
8502,8.001953125,116,-1,55,1060407,1035.5537109375,1060715,1035.8544921875,1074027,1048.8544921875
8772,8.265625,350,1,55,1060407,1035.5537109375,1060715,1035.8544921875,1074027,1048.8544921875
8848,8.33984375,351,1,55,1060407,1035.5537109375,1060715,1035.8544921875,1074027,1048.8544921875
8868,8.359375,350,1,55,1060407,1035.5537109375,1060715,1035.8544921875,1074027,1048.8544921875
9044,8.53125,350,0,55,1060407,1035.5537109375,1060715,1035.8544921875,1074027,1048.8544921875
9081,8.5673828125,351,0,55,1060407,1035.5537109375,1060715,1035.8544921875,1074027,1048.8544921875
9118,8.603515625,103,-1,55,1060407,1035.5537109375,1060715,1035.8544921875,1074027,1048.8544921875
9167,8.6513671875,351,1,55,1060407,1035.5537109375,1060715,1035.8544921875,1074027,1048.8544921875
308,0.0,13,-1,56,1081649,1056.2978515625,1081957,1056.5986328125,1095269,1069.5986328125
1330,0.998046875,1,-1,56,1081649,1056.2978515625,1081957,1056.5986328125,1095269,1069.5986328125
1683,1.3427734375,350,1,56,1081649,1056.2978515625,1081957,1056.5986328125,1095269,1069.5986328125
1715,1.3740234375,351,1,56,1081649,1056.2978515625,1081957,1056.5986328125,1095269,1069.5986328125
8242,7.748046875,350,0,56,1081649,1056.2978515625,1081957,1056.5986328125,1095269,1069.5986328125
8347,7.8505859375,351,0,56,1081649,1056.2978515625,1081957,1056.5986328125,1095269,1069.5986328125
8501,8.0009765625,113,-1,56,1081649,1056.2978515625,1081957,1056.5986328125,1095269,1069.5986328125
8628,8.125,350,0,56,1081649,1056.2978515625,1081957,1056.5986328125,1095269,1069.5986328125
8676,8.171875,351,0,56,1081649,1056.2978515625,1081957,1056.5986328125,1095269,1069.5986328125
8719,8.2138671875,350,0,56,1081649,1056.2978515625,1081957,1056.5986328125,1095269,1069.5986328125
8771,8.2646484375,351,0,56,1081649,1056.2978515625,1081957,1056.5986328125,1095269,1069.5986328125
8812,8.3046875,350,0,56,1081649,1056.2978515625,1081957,1056.5986328125,1095269,1069.5986328125
9141,8.6259765625,101,-1,56,1081649,1056.2978515625,1081957,1056.5986328125,1095269,1069.5986328125
9169,8.6533203125,351,0,56,1081649,1056.2978515625,1081957,1056.5986328125,1095269,1069.5986328125
308,0.0,13,-1,57,1102922,1077.072265625,1103230,1077.373046875,1116542,1090.373046875
1329,0.9970703125,1,-1,57,1102922,1077.072265625,1103230,1077.373046875,1116542,1090.373046875
2132,1.78125,350,0,57,1102922,1077.072265625,1103230,1077.373046875,1116542,1090.373046875
2189,1.8369140625,351,0,57,1102922,1077.072265625,1103230,1077.373046875,1116542,1090.373046875
2230,1.876953125,350,0,57,1102922,1077.072265625,1103230,1077.373046875,1116542,1090.373046875
2246,1.892578125,351,0,57,1102922,1077.072265625,1103230,1077.373046875,1116542,1090.373046875
2280,1.92578125,350,0,57,1102922,1077.072265625,1103230,1077.373046875,1116542,1090.373046875
2346,1.990234375,351,0,57,1102922,1077.072265625,1103230,1077.373046875,1116542,1090.373046875
2536,2.17578125,350,0,57,1102922,1077.072265625,1103230,1077.373046875,1116542,1090.373046875
2562,2.201171875,351,0,57,1102922,1077.072265625,1103230,1077.373046875,1116542,1090.373046875
2587,2.2255859375,350,0,57,1102922,1077.072265625,1103230,1077.373046875,1116542,1090.373046875
2604,2.2421875,351,0,57,1102922,1077.072265625,1103230,1077.373046875,1116542,1090.373046875
2710,2.345703125,350,0,57,1102922,1077.072265625,1103230,1077.373046875,1116542,1090.373046875
2732,2.3671875,351,0,57,1102922,1077.072265625,1103230,1077.373046875,1116542,1090.373046875
2777,2.4111328125,350,0,57,1102922,1077.072265625,1103230,1077.373046875,1116542,1090.373046875
2854,2.486328125,351,0,57,1102922,1077.072265625,1103230,1077.373046875,1116542,1090.373046875
2870,2.501953125,350,0,57,1102922,1077.072265625,1103230,1077.373046875,1116542,1090.373046875
2893,2.5244140625,351,0,57,1102922,1077.072265625,1103230,1077.373046875,1116542,1090.373046875
2973,2.6025390625,350,0,57,1102922,1077.072265625,1103230,1077.373046875,1116542,1090.373046875
3006,2.634765625,351,0,57,1102922,1077.072265625,1103230,1077.373046875,1116542,1090.373046875
3059,2.6865234375,350,0,57,1102922,1077.072265625,1103230,1077.373046875,1116542,1090.373046875
3077,2.7041015625,351,0,57,1102922,1077.072265625,1103230,1077.373046875,1116542,1090.373046875
3101,2.7275390625,350,0,57,1102922,1077.072265625,1103230,1077.373046875,1116542,1090.373046875
3124,2.75,351,0,57,1102922,1077.072265625,1103230,1077.373046875,1116542,1090.373046875
3208,2.83203125,350,0,57,1102922,1077.072265625,1103230,1077.373046875,1116542,1090.373046875
3225,2.8486328125,351,0,57,1102922,1077.072265625,1103230,1077.373046875,1116542,1090.373046875
3324,2.9453125,350,0,57,1102922,1077.072265625,1103230,1077.373046875,1116542,1090.373046875
3340,2.9609375,351,0,57,1102922,1077.072265625,1103230,1077.373046875,1116542,1090.373046875
3460,3.078125,350,0,57,1102922,1077.072265625,1103230,1077.373046875,1116542,1090.373046875
3495,3.1123046875,351,0,57,1102922,1077.072265625,1103230,1077.373046875,1116542,1090.373046875
3639,3.2529296875,350,0,57,1102922,1077.072265625,1103230,1077.373046875,1116542,1090.373046875
3659,3.2724609375,351,0,57,1102922,1077.072265625,1103230,1077.373046875,1116542,1090.373046875
3738,3.349609375,350,0,57,1102922,1077.072265625,1103230,1077.373046875,1116542,1090.373046875
3799,3.4091796875,351,0,57,1102922,1077.072265625,1103230,1077.373046875,1116542,1090.373046875
8500,8.0,113,-1,57,1102922,1077.072265625,1103230,1077.373046875,1116542,1090.373046875
9252,8.734375,350,0,57,1102922,1077.072265625,1103230,1077.373046875,1116542,1090.373046875
9448,8.92578125,101,-1,57,1102922,1077.072265625,1103230,1077.373046875,1116542,1090.373046875
9480,8.95703125,351,0,57,1102922,1077.072265625,1103230,1077.373046875,1116542,1090.373046875
308,0.0,16,-1,58,1124497,1098.1416015625,1124805,1098.4423828125,1138117,1111.4423828125
1332,1.0,1,-1,58,1124497,1098.1416015625,1124805,1098.4423828125,1138117,1111.4423828125
8502,8.001953125,116,-1,58,1124497,1098.1416015625,1124805,1098.4423828125,1138117,1111.4423828125
8773,8.2666015625,350,1,58,1124497,1098.1416015625,1124805,1098.4423828125,1138117,1111.4423828125
8826,8.318359375,351,1,58,1124497,1098.1416015625,1124805,1098.4423828125,1138117,1111.4423828125
9026,8.513671875,350,1,58,1124497,1098.1416015625,1124805,1098.4423828125,1138117,1111.4423828125
9090,8.576171875,351,1,58,1124497,1098.1416015625,1124805,1098.4423828125,1138117,1111.4423828125
9134,8.619140625,350,1,58,1124497,1098.1416015625,1124805,1098.4423828125,1138117,1111.4423828125
9212,8.6953125,351,1,58,1124497,1098.1416015625,1124805,1098.4423828125,1138117,1111.4423828125
9231,8.7138671875,350,1,58,1124497,1098.1416015625,1124805,1098.4423828125,1138117,1111.4423828125
9392,8.87109375,351,1,58,1124497,1098.1416015625,1124805,1098.4423828125,1138117,1111.4423828125
9408,8.88671875,350,1,58,1124497,1098.1416015625,1124805,1098.4423828125,1138117,1111.4423828125
9591,9.0654296875,103,-1,58,1124497,1098.1416015625,1124805,1098.4423828125,1138117,1111.4423828125
9658,9.130859375,351,1,58,1124497,1098.1416015625,1124805,1098.4423828125,1138117,1111.4423828125
308,0.0,13,-1,59,1146206,1119.341796875,1146514,1119.642578125,1159826,1132.642578125
741,0.4228515625,350,0,59,1146206,1119.341796875,1146514,1119.642578125,1159826,1132.642578125
758,0.439453125,351,0,59,1146206,1119.341796875,1146514,1119.642578125,1159826,1132.642578125
805,0.4853515625,350,0,59,1146206,1119.341796875,1146514,1119.642578125,1159826,1132.642578125
887,0.5654296875,351,0,59,1146206,1119.341796875,1146514,1119.642578125,1159826,1132.642578125
1331,0.9990234375,1,-1,59,1146206,1119.341796875,1146514,1119.642578125,1159826,1132.642578125
1925,1.5791015625,350,0,59,1146206,1119.341796875,1146514,1119.642578125,1159826,1132.642578125
2000,1.65234375,351,0,59,1146206,1119.341796875,1146514,1119.642578125,1159826,1132.642578125
2341,1.9853515625,350,0,59,1146206,1119.341796875,1146514,1119.642578125,1159826,1132.642578125
2400,2.04296875,351,0,59,1146206,1119.341796875,1146514,1119.642578125,1159826,1132.642578125
8493,7.9931640625,350,0,59,1146206,1119.341796875,1146514,1119.642578125,1159826,1132.642578125
8502,8.001953125,113,-1,59,1146206,1119.341796875,1146514,1119.642578125,1159826,1132.642578125
8589,8.0869140625,351,0,59,1146206,1119.341796875,1146514,1119.642578125,1159826,1132.642578125
8683,8.1787109375,350,0,59,1146206,1119.341796875,1146514,1119.642578125,1159826,1132.642578125
8759,8.2529296875,351,0,59,1146206,1119.341796875,1146514,1119.642578125,1159826,1132.642578125
8782,8.275390625,350,0,59,1146206,1119.341796875,1146514,1119.642578125,1159826,1132.642578125
8989,8.4775390625,101,-1,59,1146206,1119.341796875,1146514,1119.642578125,1159826,1132.642578125
9039,8.5263671875,351,0,59,1146206,1119.341796875,1146514,1119.642578125,1159826,1132.642578125
308,0.0,13,-1,60,1197982,1169.904296875,1198290,1170.205078125,1211602,1183.205078125
1331,0.9990234375,1,-1,60,1197982,1169.904296875,1198290,1170.205078125,1211602,1183.205078125
8502,8.001953125,113,-1,60,1197982,1169.904296875,1198290,1170.205078125,1211602,1183.205078125
8901,8.3916015625,350,0,60,1197982,1169.904296875,1198290,1170.205078125,1211602,1183.205078125
9089,8.5751953125,101,-1,60,1197982,1169.904296875,1198290,1170.205078125,1211602,1183.205078125
9120,8.60546875,351,0,60,1197982,1169.904296875,1198290,1170.205078125,1211602,1183.205078125
308,0.0,13,-1,61,1219200,1190.625,1219508,1190.92578125,1232820,1203.92578125
1332,1.0,1,-1,61,1219200,1190.625,1219508,1190.92578125,1232820,1203.92578125
8503,8.0029296875,113,-1,61,1219200,1190.625,1219508,1190.92578125,1232820,1203.92578125
9328,8.80859375,350,0,61,1219200,1190.625,1219508,1190.92578125,1232820,1203.92578125
9556,9.03125,101,-1,61,1219200,1190.625,1219508,1190.92578125,1232820,1203.92578125
9588,9.0625,351,0,61,1219200,1190.625,1219508,1190.92578125,1232820,1203.92578125
308,0.0,16,-1,62,1240875,1211.7919921875,1241183,1212.0927734375,1254495,1225.0927734375
1331,0.9990234375,1,-1,62,1240875,1211.7919921875,1241183,1212.0927734375,1254495,1225.0927734375
8502,8.001953125,116,-1,62,1240875,1211.7919921875,1241183,1212.0927734375,1254495,1225.0927734375
9717,9.1884765625,350,1,62,1240875,1211.7919921875,1241183,1212.0927734375,1254495,1225.0927734375
9742,9.212890625,351,1,62,1240875,1211.7919921875,1241183,1212.0927734375,1254495,1225.0927734375
9765,9.2353515625,350,1,62,1240875,1211.7919921875,1241183,1212.0927734375,1254495,1225.0927734375
9801,9.2705078125,351,1,62,1240875,1211.7919921875,1241183,1212.0927734375,1254495,1225.0927734375
9864,9.33203125,350,1,62,1240875,1211.7919921875,1241183,1212.0927734375,1254495,1225.0927734375
9942,9.408203125,351,1,62,1240875,1211.7919921875,1241183,1212.0927734375,1254495,1225.0927734375
9979,9.4443359375,350,1,62,1240875,1211.7919921875,1241183,1212.0927734375,1254495,1225.0927734375
10028,9.4921875,351,1,62,1240875,1211.7919921875,1241183,1212.0927734375,1254495,1225.0927734375
10041,9.5048828125,350,1,62,1240875,1211.7919921875,1241183,1212.0927734375,1254495,1225.0927734375
10073,9.5361328125,351,1,62,1240875,1211.7919921875,1241183,1212.0927734375,1254495,1225.0927734375
10105,9.5673828125,350,1,62,1240875,1211.7919921875,1241183,1212.0927734375,1254495,1225.0927734375
10243,9.7021484375,103,-1,62,1240875,1211.7919921875,1241183,1212.0927734375,1254495,1225.0927734375
10275,9.7333984375,351,1,62,1240875,1211.7919921875,1241183,1212.0927734375,1254495,1225.0927734375
308,0.0,13,-1,63,1263241,1233.6337890625,1263549,1233.9345703125,1276861,1246.9345703125
1331,0.9990234375,1,-1,63,1263241,1233.6337890625,1263549,1233.9345703125,1276861,1246.9345703125
3178,2.802734375,350,0,63,1263241,1233.6337890625,1263549,1233.9345703125,1276861,1246.9345703125
3254,2.876953125,351,0,63,1263241,1233.6337890625,1263549,1233.9345703125,1276861,1246.9345703125
8278,7.783203125,350,0,63,1263241,1233.6337890625,1263549,1233.9345703125,1276861,1246.9345703125
8334,7.837890625,351,0,63,1263241,1233.6337890625,1263549,1233.9345703125,1276861,1246.9345703125
8369,7.8720703125,350,0,63,1263241,1233.6337890625,1263549,1233.9345703125,1276861,1246.9345703125
8421,7.9228515625,351,0,63,1263241,1233.6337890625,1263549,1233.9345703125,1276861,1246.9345703125
8500,8.0,113,-1,63,1263241,1233.6337890625,1263549,1233.9345703125,1276861,1246.9345703125
8642,8.138671875,350,0,63,1263241,1233.6337890625,1263549,1233.9345703125,1276861,1246.9345703125
8692,8.1875,351,0,63,1263241,1233.6337890625,1263549,1233.9345703125,1276861,1246.9345703125
8733,8.2275390625,350,0,63,1263241,1233.6337890625,1263549,1233.9345703125,1276861,1246.9345703125
8834,8.326171875,351,0,63,1263241,1233.6337890625,1263549,1233.9345703125,1276861,1246.9345703125
8860,8.3515625,350,0,63,1263241,1233.6337890625,1263549,1233.9345703125,1276861,1246.9345703125
9234,8.716796875,101,-1,63,1263241,1233.6337890625,1263549,1233.9345703125,1276861,1246.9345703125
9251,8.7333984375,351,0,63,1263241,1233.6337890625,1263549,1233.9345703125,1276861,1246.9345703125
308,0.0,16,-1,64,1284596,1254.48828125,1284904,1254.7890625,1298216,1267.7890625
1332,1.0,1,-1,64,1284596,1254.48828125,1284904,1254.7890625,1298216,1267.7890625
8503,8.0029296875,116,-1,64,1284596,1254.48828125,1284904,1254.7890625,1298216,1267.7890625
8805,8.2978515625,350,1,64,1284596,1254.48828125,1284904,1254.7890625,1298216,1267.7890625
8977,8.4658203125,103,-1,64,1284596,1254.48828125,1284904,1254.7890625,1298216,1267.7890625
8996,8.484375,351,1,64,1284596,1254.48828125,1284904,1254.7890625,1298216,1267.7890625
308,0.0,13,-1,65,1305685,1275.0830078125,1305993,1275.3837890625,1319305,1288.3837890625
1331,0.9990234375,1,-1,65,1305685,1275.0830078125,1305993,1275.3837890625,1319305,1288.3837890625
2147,1.7958984375,350,1,65,1305685,1275.0830078125,1305993,1275.3837890625,1319305,1288.3837890625
2172,1.8203125,351,1,65,1305685,1275.0830078125,1305993,1275.3837890625,1319305,1288.3837890625
8502,8.001953125,113,-1,65,1305685,1275.0830078125,1305993,1275.3837890625,1319305,1288.3837890625
8954,8.443359375,350,0,65,1305685,1275.0830078125,1305993,1275.3837890625,1319305,1288.3837890625
8995,8.4833984375,351,0,65,1305685,1275.0830078125,1305993,1275.3837890625,1319305,1288.3837890625
9069,8.5556640625,350,0,65,1305685,1275.0830078125,1305993,1275.3837890625,1319305,1288.3837890625
9125,8.6103515625,351,0,65,1305685,1275.0830078125,1305993,1275.3837890625,1319305,1288.3837890625
9155,8.6396484375,350,0,65,1305685,1275.0830078125,1305993,1275.3837890625,1319305,1288.3837890625
9356,8.8359375,101,-1,65,1305685,1275.0830078125,1305993,1275.3837890625,1319305,1288.3837890625
9358,8.837890625,351,0,65,1305685,1275.0830078125,1305993,1275.3837890625,1319305,1288.3837890625
308,0.0,16,-1,66,1327167,1296.0615234375,1327475,1296.3623046875,1340787,1309.3623046875
1332,1.0,1,-1,66,1327167,1296.0615234375,1327475,1296.3623046875,1340787,1309.3623046875
8503,8.0029296875,116,-1,66,1327167,1296.0615234375,1327475,1296.3623046875,1340787,1309.3623046875
8866,8.357421875,350,1,66,1327167,1296.0615234375,1327475,1296.3623046875,1340787,1309.3623046875
9065,8.5517578125,103,-1,66,1327167,1296.0615234375,1327475,1296.3623046875,1340787,1309.3623046875
9124,8.609375,351,1,66,1327167,1296.0615234375,1327475,1296.3623046875,1340787,1309.3623046875
308,0.0,16,-1,67,1348342,1316.740234375,1348650,1317.041015625,1361962,1330.041015625
1332,1.0,1,-1,67,1348342,1316.740234375,1348650,1317.041015625,1361962,1330.041015625
3448,3.06640625,350,0,67,1348342,1316.740234375,1348650,1317.041015625,1361962,1330.041015625
3505,3.1220703125,351,0,67,1348342,1316.740234375,1348650,1317.041015625,1361962,1330.041015625
4059,3.6630859375,350,0,67,1348342,1316.740234375,1348650,1317.041015625,1361962,1330.041015625
4076,3.6796875,351,0,67,1348342,1316.740234375,1348650,1317.041015625,1361962,1330.041015625
4201,3.8017578125,350,1,67,1348342,1316.740234375,1348650,1317.041015625,1361962,1330.041015625
4281,3.8798828125,351,1,67,1348342,1316.740234375,1348650,1317.041015625,1361962,1330.041015625
8503,8.0029296875,116,-1,67,1348342,1316.740234375,1348650,1317.041015625,1361962,1330.041015625
8798,8.291015625,350,0,67,1348342,1316.740234375,1348650,1317.041015625,1361962,1330.041015625
8855,8.3466796875,351,0,67,1348342,1316.740234375,1348650,1317.041015625,1361962,1330.041015625
9486,8.962890625,350,1,67,1348342,1316.740234375,1348650,1317.041015625,1361962,1330.041015625
9664,9.13671875,103,-1,67,1348342,1316.740234375,1348650,1317.041015625,1361962,1330.041015625
9688,9.16015625,351,1,67,1348342,1316.740234375,1348650,1317.041015625,1361962,1330.041015625
308,0.0,13,-1,68,1370132,1338.01953125,1370440,1338.3203125,1383752,1351.3203125
1332,1.0,1,-1,68,1370132,1338.01953125,1370440,1338.3203125,1383752,1351.3203125
8503,8.0029296875,113,-1,68,1370132,1338.01953125,1370440,1338.3203125,1383752,1351.3203125
9647,9.1201171875,350,0,68,1370132,1338.01953125,1370440,1338.3203125,1383752,1351.3203125
9700,9.171875,351,0,68,1370132,1338.01953125,1370440,1338.3203125,1383752,1351.3203125
9760,9.23046875,350,0,68,1370132,1338.01953125,1370440,1338.3203125,1383752,1351.3203125
9964,9.4296875,101,-1,68,1370132,1338.01953125,1370440,1338.3203125,1383752,1351.3203125
9985,9.4501953125,351,0,68,1370132,1338.01953125,1370440,1338.3203125,1383752,1351.3203125
308,0.0,16,-1,69,1392242,1359.611328125,1392550,1359.912109375,1405862,1372.912109375
482,0.169921875,350,1,69,1392242,1359.611328125,1392550,1359.912109375,1405862,1372.912109375
515,0.2021484375,351,1,69,1392242,1359.611328125,1392550,1359.912109375,1405862,1372.912109375
1332,1.0,1,-1,69,1392242,1359.611328125,1392550,1359.912109375,1405862,1372.912109375
1685,1.3447265625,350,1,69,1392242,1359.611328125,1392550,1359.912109375,1405862,1372.912109375
1743,1.4013671875,351,1,69,1392242,1359.611328125,1392550,1359.912109375,1405862,1372.912109375
1848,1.50390625,350,1,69,1392242,1359.611328125,1392550,1359.912109375,1405862,1372.912109375
1861,1.5166015625,351,1,69,1392242,1359.611328125,1392550,1359.912109375,1405862,1372.912109375
1936,1.58984375,350,1,69,1392242,1359.611328125,1392550,1359.912109375,1405862,1372.912109375
1957,1.6103515625,351,1,69,1392242,1359.611328125,1392550,1359.912109375,1405862,1372.912109375
8502,8.001953125,116,-1,69,1392242,1359.611328125,1392550,1359.912109375,1405862,1372.912109375
8720,8.21484375,350,1,69,1392242,1359.611328125,1392550,1359.912109375,1405862,1372.912109375
8750,8.244140625,351,1,69,1392242,1359.611328125,1392550,1359.912109375,1405862,1372.912109375
8765,8.2587890625,350,1,69,1392242,1359.611328125,1392550,1359.912109375,1405862,1372.912109375
8795,8.2880859375,351,1,69,1392242,1359.611328125,1392550,1359.912109375,1405862,1372.912109375
8825,8.3173828125,350,1,69,1392242,1359.611328125,1392550,1359.912109375,1405862,1372.912109375
9042,8.529296875,103,-1,69,1392242,1359.611328125,1392550,1359.912109375,1405862,1372.912109375
9088,8.57421875,351,1,69,1392242,1359.611328125,1392550,1359.912109375,1405862,1372.912109375
308,0.0,13,-1,70,1413403,1380.2763671875,1413711,1380.5771484375,1427023,1393.5771484375
1332,1.0,1,-1,70,1413403,1380.2763671875,1413711,1380.5771484375,1427023,1393.5771484375
8502,8.001953125,113,-1,70,1413403,1380.2763671875,1413711,1380.5771484375,1427023,1393.5771484375
9281,8.7626953125,350,0,70,1413403,1380.2763671875,1413711,1380.5771484375,1427023,1393.5771484375
9340,8.8203125,351,0,70,1413403,1380.2763671875,1413711,1380.5771484375,1427023,1393.5771484375
9384,8.86328125,350,0,70,1413403,1380.2763671875,1413711,1380.5771484375,1427023,1393.5771484375
9422,8.900390625,351,0,70,1413403,1380.2763671875,1413711,1380.5771484375,1427023,1393.5771484375
9437,8.9150390625,350,0,70,1413403,1380.2763671875,1413711,1380.5771484375,1427023,1393.5771484375
9488,8.96484375,351,0,70,1413403,1380.2763671875,1413711,1380.5771484375,1427023,1393.5771484375
9582,9.056640625,350,0,70,1413403,1380.2763671875,1413711,1380.5771484375,1427023,1393.5771484375
9650,9.123046875,351,0,70,1413403,1380.2763671875,1413711,1380.5771484375,1427023,1393.5771484375
9682,9.154296875,350,0,70,1413403,1380.2763671875,1413711,1380.5771484375,1427023,1393.5771484375
9889,9.3564453125,351,0,70,1413403,1380.2763671875,1413711,1380.5771484375,1427023,1393.5771484375
9905,9.3720703125,350,0,70,1413403,1380.2763671875,1413711,1380.5771484375,1427023,1393.5771484375
10098,9.560546875,101,-1,70,1413403,1380.2763671875,1413711,1380.5771484375,1427023,1393.5771484375
10122,9.583984375,351,0,70,1413403,1380.2763671875,1413711,1380.5771484375,1427023,1393.5771484375
308,0.0,16,-1,71,1435642,1401.994140625,1435950,1402.294921875,1449262,1415.294921875
1332,1.0,1,-1,71,1435642,1401.994140625,1435950,1402.294921875,1449262,1415.294921875
8453,7.9541015625,350,1,71,1435642,1401.994140625,1435950,1402.294921875,1449262,1415.294921875
8494,7.994140625,351,1,71,1435642,1401.994140625,1435950,1402.294921875,1449262,1415.294921875
8502,8.001953125,116,-1,71,1435642,1401.994140625,1435950,1402.294921875,1449262,1415.294921875
8919,8.4091796875,350,1,71,1435642,1401.994140625,1435950,1402.294921875,1449262,1415.294921875
9194,8.677734375,103,-1,71,1435642,1401.994140625,1435950,1402.294921875,1449262,1415.294921875
9239,8.7216796875,351,1,71,1435642,1401.994140625,1435950,1402.294921875,1449262,1415.294921875
308,0.0,16,-1,72,1456956,1422.80859375,1457264,1423.109375,1470576,1436.109375
1279,0.9482421875,350,0,72,1456956,1422.80859375,1457264,1423.109375,1470576,1436.109375
1332,1.0,1,-1,72,1456956,1422.80859375,1457264,1423.109375,1470576,1436.109375
1354,1.021484375,351,0,72,1456956,1422.80859375,1457264,1423.109375,1470576,1436.109375
1656,1.31640625,350,0,72,1456956,1422.80859375,1457264,1423.109375,1470576,1436.109375
1702,1.361328125,351,0,72,1456956,1422.80859375,1457264,1423.109375,1470576,1436.109375
8502,8.001953125,116,-1,72,1456956,1422.80859375,1457264,1423.109375,1470576,1436.109375
9021,8.5087890625,350,1,72,1456956,1422.80859375,1457264,1423.109375,1470576,1436.109375
9258,8.740234375,103,-1,72,1456956,1422.80859375,1457264,1423.109375,1470576,1436.109375
9278,8.759765625,351,1,72,1456956,1422.80859375,1457264,1423.109375,1470576,1436.109375
308,0.0,13,-1,73,1478344,1443.6953125,1478652,1443.99609375,1491964,1456.99609375
1332,1.0,1,-1,73,1478344,1443.6953125,1478652,1443.99609375,1491964,1456.99609375
8501,8.0009765625,113,-1,73,1478344,1443.6953125,1478652,1443.99609375,1491964,1456.99609375
8653,8.1494140625,350,0,73,1478344,1443.6953125,1478652,1443.99609375,1491964,1456.99609375
8741,8.2353515625,351,0,73,1478344,1443.6953125,1478652,1443.99609375,1491964,1456.99609375
8763,8.2568359375,350,0,73,1478344,1443.6953125,1478652,1443.99609375,1491964,1456.99609375
9026,8.513671875,101,-1,73,1478344,1443.6953125,1478652,1443.99609375,1491964,1456.99609375
9046,8.533203125,351,0,73,1478344,1443.6953125,1478652,1443.99609375,1491964,1456.99609375
308,0.0,16,-1,74,1499504,1464.359375,1499812,1464.66015625,1513124,1477.66015625
1331,0.9990234375,1,-1,74,1499504,1464.359375,1499812,1464.66015625,1513124,1477.66015625
8491,7.9912109375,350,1,74,1499504,1464.359375,1499812,1464.66015625,1513124,1477.66015625
8502,8.001953125,116,-1,74,1499504,1464.359375,1499812,1464.66015625,1513124,1477.66015625
8578,8.076171875,351,1,74,1499504,1464.359375,1499812,1464.66015625,1513124,1477.66015625
8615,8.1123046875,350,1,74,1499504,1464.359375,1499812,1464.66015625,1513124,1477.66015625
8664,8.16015625,351,1,74,1499504,1464.359375,1499812,1464.66015625,1513124,1477.66015625
8765,8.2587890625,350,1,74,1499504,1464.359375,1499812,1464.66015625,1513124,1477.66015625
8845,8.3369140625,351,1,74,1499504,1464.359375,1499812,1464.66015625,1513124,1477.66015625
8875,8.3662109375,350,1,74,1499504,1464.359375,1499812,1464.66015625,1513124,1477.66015625
8911,8.4013671875,351,1,74,1499504,1464.359375,1499812,1464.66015625,1513124,1477.66015625
8935,8.4248046875,350,1,74,1499504,1464.359375,1499812,1464.66015625,1513124,1477.66015625
9117,8.6025390625,103,-1,74,1499504,1464.359375,1499812,1464.66015625,1513124,1477.66015625
9146,8.630859375,351,1,74,1499504,1464.359375,1499812,1464.66015625,1513124,1477.66015625
308,0.0,13,-1,75,1520760,1485.1171875,1521068,1485.41796875,1534380,1498.41796875
1333,1.0009765625,1,-1,75,1520760,1485.1171875,1521068,1485.41796875,1534380,1498.41796875
2346,1.990234375,350,1,75,1520760,1485.1171875,1521068,1485.41796875,1534380,1498.41796875
2405,2.0478515625,351,1,75,1520760,1485.1171875,1521068,1485.41796875,1534380,1498.41796875
2433,2.0751953125,350,1,75,1520760,1485.1171875,1521068,1485.41796875,1534380,1498.41796875
2469,2.1103515625,351,1,75,1520760,1485.1171875,1521068,1485.41796875,1534380,1498.41796875
5653,5.2197265625,350,1,75,1520760,1485.1171875,1521068,1485.41796875,1534380,1498.41796875
5731,5.2958984375,351,1,75,1520760,1485.1171875,1521068,1485.41796875,1534380,1498.41796875
8503,8.0029296875,113,-1,75,1520760,1485.1171875,1521068,1485.41796875,1534380,1498.41796875
9038,8.525390625,350,0,75,1520760,1485.1171875,1521068,1485.41796875,1534380,1498.41796875
9097,8.5830078125,351,0,75,1520760,1485.1171875,1521068,1485.41796875,1534380,1498.41796875
9141,8.6259765625,350,0,75,1520760,1485.1171875,1521068,1485.41796875,1534380,1498.41796875
9155,8.6396484375,351,0,75,1520760,1485.1171875,1521068,1485.41796875,1534380,1498.41796875
9178,8.662109375,350,0,75,1520760,1485.1171875,1521068,1485.41796875,1534380,1498.41796875
9407,8.8857421875,101,-1,75,1520760,1485.1171875,1521068,1485.41796875,1534380,1498.41796875
9443,8.9208984375,351,0,75,1520760,1485.1171875,1521068,1485.41796875,1534380,1498.41796875
308,0.0,16,-1,76,1542290,1506.142578125,1542598,1506.443359375,1555910,1519.443359375
1332,1.0,1,-1,76,1542290,1506.142578125,1542598,1506.443359375,1555910,1519.443359375
2286,1.931640625,350,1,76,1542290,1506.142578125,1542598,1506.443359375,1555910,1519.443359375
2339,1.9833984375,351,1,76,1542290,1506.142578125,1542598,1506.443359375,1555910,1519.443359375
2434,2.076171875,350,1,76,1542290,1506.142578125,1542598,1506.443359375,1555910,1519.443359375
2532,2.171875,351,1,76,1542290,1506.142578125,1542598,1506.443359375,1555910,1519.443359375
2648,2.28515625,350,1,76,1542290,1506.142578125,1542598,1506.443359375,1555910,1519.443359375
2736,2.37109375,351,1,76,1542290,1506.142578125,1542598,1506.443359375,1555910,1519.443359375
8503,8.0029296875,116,-1,76,1542290,1506.142578125,1542598,1506.443359375,1555910,1519.443359375
8741,8.2353515625,350,1,76,1542290,1506.142578125,1542598,1506.443359375,1555910,1519.443359375
8838,8.330078125,351,1,76,1542290,1506.142578125,1542598,1506.443359375,1555910,1519.443359375
8902,8.392578125,350,1,76,1542290,1506.142578125,1542598,1506.443359375,1555910,1519.443359375
8970,8.458984375,351,1,76,1542290,1506.142578125,1542598,1506.443359375,1555910,1519.443359375
9044,8.53125,350,1,76,1542290,1506.142578125,1542598,1506.443359375,1555910,1519.443359375
9213,8.6962890625,103,-1,76,1542290,1506.142578125,1542598,1506.443359375,1555910,1519.443359375
9262,8.744140625,351,1,76,1542290,1506.142578125,1542598,1506.443359375,1555910,1519.443359375
308,0.0,13,-1,77,1563636,1526.98828125,1563944,1527.2890625,1577256,1540.2890625
1330,0.998046875,1,-1,77,1563636,1526.98828125,1563944,1527.2890625,1577256,1540.2890625
1741,1.3994140625,350,1,77,1563636,1526.98828125,1563944,1527.2890625,1577256,1540.2890625
1824,1.48046875,351,1,77,1563636,1526.98828125,1563944,1527.2890625,1577256,1540.2890625
2780,2.4140625,350,1,77,1563636,1526.98828125,1563944,1527.2890625,1577256,1540.2890625
2838,2.470703125,351,1,77,1563636,1526.98828125,1563944,1527.2890625,1577256,1540.2890625
3974,3.580078125,350,0,77,1563636,1526.98828125,1563944,1527.2890625,1577256,1540.2890625
4046,3.650390625,351,0,77,1563636,1526.98828125,1563944,1527.2890625,1577256,1540.2890625
5088,4.66796875,350,1,77,1563636,1526.98828125,1563944,1527.2890625,1577256,1540.2890625
5137,4.7158203125,351,1,77,1563636,1526.98828125,1563944,1527.2890625,1577256,1540.2890625
8056,7.56640625,350,0,77,1563636,1526.98828125,1563944,1527.2890625,1577256,1540.2890625
8101,7.6103515625,351,0,77,1563636,1526.98828125,1563944,1527.2890625,1577256,1540.2890625
8501,8.0009765625,113,-1,77,1563636,1526.98828125,1563944,1527.2890625,1577256,1540.2890625
8689,8.1845703125,350,0,77,1563636,1526.98828125,1563944,1527.2890625,1577256,1540.2890625
8720,8.21484375,351,0,77,1563636,1526.98828125,1563944,1527.2890625,1577256,1540.2890625
8740,8.234375,350,0,77,1563636,1526.98828125,1563944,1527.2890625,1577256,1540.2890625
8915,8.4052734375,101,-1,77,1563636,1526.98828125,1563944,1527.2890625,1577256,1540.2890625
8956,8.4453125,351,0,77,1563636,1526.98828125,1563944,1527.2890625,1577256,1540.2890625
308,0.0,13,-1,78,1584691,1547.5498046875,1584999,1547.8505859375,1598311,1560.8505859375
1331,0.9990234375,1,-1,78,1584691,1547.5498046875,1584999,1547.8505859375,1598311,1560.8505859375
1381,1.0478515625,350,1,78,1584691,1547.5498046875,1584999,1547.8505859375,1598311,1560.8505859375
1431,1.0966796875,351,1,78,1584691,1547.5498046875,1584999,1547.8505859375,1598311,1560.8505859375
8503,8.0029296875,113,-1,78,1584691,1547.5498046875,1584999,1547.8505859375,1598311,1560.8505859375
9264,8.74609375,350,0,78,1584691,1547.5498046875,1584999,1547.8505859375,1598311,1560.8505859375
9472,8.94921875,101,-1,78,1584691,1547.5498046875,1584999,1547.8505859375,1598311,1560.8505859375
9476,8.953125,351,0,78,1584691,1547.5498046875,1584999,1547.8505859375,1598311,1560.8505859375
308,0.0,13,-1,79,1606280,1568.6328125,1606588,1568.93359375,1619900,1581.93359375
1332,1.0,1,-1,79,1606280,1568.6328125,1606588,1568.93359375,1619900,1581.93359375
